r(m), B_r(T), B_theta(T), B_z(T) 
0.00000e+00, 1.59540e+01, 1.59540e+01, -0.00000e+00 
2.50000e-03, 1.59508e+01, 1.59447e+01, -6.22403e-01 
5.00000e-03, 1.59413e+01, 1.59170e+01, -1.24408e+00 
7.50000e-03, 1.59255e+01, 1.58709e+01, -1.86430e+00 
1.00000e-02, 1.59033e+01, 1.58063e+01, -2.48235e+00 
1.25000e-02, 1.58748e+01, 1.57235e+01, -3.09750e+00 
1.50000e-02, 1.58401e+01, 1.56225e+01, -3.70904e+00 
1.75000e-02, 1.57991e+01, 1.55034e+01, -4.31626e+00 
2.00000e-02, 1.57519e+01, 1.53665e+01, -4.91844e+00 
2.25000e-02, 1.56985e+01, 1.52118e+01, -5.51489e+00 
2.50000e-02, 1.56390e+01, 1.50395e+01, -6.10491e+00 
2.75000e-02, 1.55734e+01, 1.48500e+01, -6.68783e+00 
3.00000e-02, 1.55017e+01, 1.46434e+01, -7.26296e+00 
3.25000e-02, 1.54241e+01, 1.44201e+01, -7.82964e+00 
3.50000e-02, 1.53405e+01, 1.41802e+01, -8.38722e+00 
3.75000e-02, 1.52511e+01, 1.39241e+01, -8.93505e+00 
4.00000e-02, 1.51559e+01, 1.36522e+01, -9.47250e+00 
4.25000e-02, 1.50549e+01, 1.33648e+01, -9.99896e+00 
4.50000e-02, 1.49484e+01, 1.30622e+01, -1.05138e+01 
4.75000e-02, 1.48363e+01, 1.27449e+01, -1.10165e+01 
5.00000e-02, 1.47187e+01, 1.24133e+01, -1.15064e+01 
5.25000e-02, 1.45958e+01, 1.20677e+01, -1.19831e+01 
5.50000e-02, 1.44676e+01, 1.17087e+01, -1.24458e+01 
5.75000e-02, 1.43343e+01, 1.13366e+01, -1.28942e+01 
6.00000e-02, 1.41959e+01, 1.09521e+01, -1.33278e+01 
6.25000e-02, 1.40525e+01, 1.05555e+01, -1.37460e+01 
6.50000e-02, 1.39042e+01, 1.01474e+01, -1.41484e+01 
6.75000e-02, 1.37513e+01, 9.72827e+00, -1.45345e+01 
7.00000e-02, 1.35937e+01, 9.29871e+00, -1.49039e+01 
7.25000e-02, 1.34316e+01, 8.85925e+00, -1.52563e+01 
7.50000e-02, 1.32652e+01, 8.41044e+00, -1.55912e+01 
7.75000e-02, 1.30946e+01, 7.95287e+00, -1.59084e+01 
8.00000e-02, 1.29198e+01, 7.48711e+00, -1.62073e+01 
8.25000e-02, 1.27410e+01, 7.01377e+00, -1.64878e+01 
8.50000e-02, 1.25585e+01, 6.53345e+00, -1.67496e+01 
8.75000e-02, 1.23722e+01, 6.04676e+00, -1.69924e+01 
9.00000e-02, 1.21824e+01, 5.55433e+00, -1.72160e+01 
9.25000e-02, 1.19891e+01, 5.05677e+00, -1.74201e+01 
9.50000e-02, 1.17926e+01, 4.55473e+00, -1.76046e+01 
9.75000e-02, 1.15930e+01, 4.04884e+00, -1.77692e+01 
1.00000e-01, 1.13904e+01, 3.53974e+00, -1.79140e+01 
1.02500e-01, 1.11850e+01, 3.02809e+00, -1.80386e+01 
1.05000e-01, 1.09770e+01, 2.51452e+00, -1.81432e+01 
1.07500e-01, 1.07664e+01, 1.99969e+00, -1.82275e+01 
1.10000e-01, 1.05535e+01, 1.48425e+00, -1.82917e+01 
1.12500e-01, 1.03384e+01, 9.68847e-01, -1.83355e+01 
1.15000e-01, 1.01213e+01, 4.54129e-01, -1.83592e+01 
1.17500e-01, 9.90226e+00, -5.92559e-02, -1.83626e+01 
1.20000e-01, 9.68154e+00, -5.70664e-01, -1.83459e+01 
1.22500e-01, 9.45927e+00, -1.07945e+00, -1.83092e+01 
1.25000e-01, 9.23560e+00, -1.58499e+00, -1.82526e+01 
1.27500e-01, 9.01071e+00, -2.08664e+00, -1.81762e+01 
1.30000e-01, 8.78474e+00, -2.58379e+00, -1.80803e+01 
1.32500e-01, 8.55787e+00, -3.07581e+00, -1.79648e+01 
1.35000e-01, 8.33025e+00, -3.56209e+00, -1.78302e+01 
1.37500e-01, 8.10204e+00, -4.04205e+00, -1.76767e+01 
1.40000e-01, 7.87341e+00, -4.51507e+00, -1.75044e+01 
1.42500e-01, 7.64451e+00, -4.98059e+00, -1.73137e+01 
1.45000e-01, 7.41550e+00, -5.43803e+00, -1.71049e+01 
1.47500e-01, 7.18654e+00, -5.88684e+00, -1.68783e+01 
1.50000e-01, 6.95779e+00, -6.32647e+00, -1.66343e+01 
1.52500e-01, 6.72940e+00, -6.75638e+00, -1.63732e+01 
1.55000e-01, 6.50152e+00, -7.17607e+00, -1.60955e+01 
1.57500e-01, 6.27431e+00, -7.58502e+00, -1.58015e+01 
1.60000e-01, 6.04792e+00, -7.98274e+00, -1.54917e+01 
1.62500e-01, 5.82250e+00, -8.36878e+00, -1.51665e+01 
1.65000e-01, 5.59820e+00, -8.74265e+00, -1.48265e+01 
1.67500e-01, 5.37515e+00, -9.10394e+00, -1.44720e+01 
1.70000e-01, 5.15351e+00, -9.45222e+00, -1.41037e+01 
1.72500e-01, 4.93342e+00, -9.78708e+00, -1.37219e+01 
1.75000e-01, 4.71501e+00, -1.01081e+01, -1.33273e+01 
1.77500e-01, 4.49842e+00, -1.04150e+01, -1.29205e+01 
1.80000e-01, 4.28378e+00, -1.07074e+01, -1.25018e+01 
1.82500e-01, 4.07123e+00, -1.09850e+01, -1.20721e+01 
1.85000e-01, 3.86088e+00, -1.12474e+01, -1.16317e+01 
1.87500e-01, 3.65287e+00, -1.14943e+01, -1.11815e+01 
1.90000e-01, 3.44732e+00, -1.17256e+01, -1.07218e+01 
1.92500e-01, 3.24435e+00, -1.19410e+01, -1.02535e+01 
1.95000e-01, 3.04407e+00, -1.21402e+01, -9.77704e+00 
1.97500e-01, 2.84659e+00, -1.23230e+01, -9.29314e+00 
2.00000e-01, 2.65202e+00, -1.24894e+01, -8.80244e+00 
2.02500e-01, 2.46048e+00, -1.26390e+01, -8.30559e+00 
2.05000e-01, 2.27205e+00, -1.27718e+01, -7.80325e+00 
2.07500e-01, 2.08683e+00, -1.28878e+01, -7.29609e+00 
2.10000e-01, 1.90493e+00, -1.29867e+01, -6.78476e+00 
2.12500e-01, 1.72643e+00, -1.30685e+01, -6.26995e+00 
2.15000e-01, 1.55142e+00, -1.31333e+01, -5.75232e+00 
2.17500e-01, 1.37998e+00, -1.31809e+01, -5.23255e+00 
2.20000e-01, 1.21219e+00, -1.32114e+01, -4.71131e+00 
2.22500e-01, 1.04812e+00, -1.32249e+01, -4.18928e+00 
2.25000e-01, 8.87844e-01, -1.32213e+01, -3.66712e+00 
2.27500e-01, 7.31431e-01, -1.32007e+01, -3.14551e+00 
2.30000e-01, 5.78942e-01, -1.31633e+01, -2.62511e+00 
2.32500e-01, 4.30435e-01, -1.31092e+01, -2.10658e+00 
2.35000e-01, 2.85963e-01, -1.30384e+01, -1.59058e+00 
2.37500e-01, 1.45578e-01, -1.29512e+01, -1.07776e+00 
2.40000e-01, 9.32338e-03, -1.28478e+01, -5.68752e-01 
2.42500e-01, -1.22758e-01, -1.27283e+01, -6.42042e-02 
2.45000e-01, -2.50629e-01, -1.25930e+01, 4.35261e-01 
2.47500e-01, -3.74257e-01, -1.24422e+01, 9.29026e-01 
2.50000e-01, -4.93612e-01, -1.22760e+01, 1.41648e+00 
2.52500e-01, -6.08672e-01, -1.20949e+01, 1.89704e+00 
2.55000e-01, -7.19415e-01, -1.18990e+01, 2.37011e+00 
2.57500e-01, -8.25824e-01, -1.16887e+01, 2.83512e+00 
2.60000e-01, -9.27889e-01, -1.14645e+01, 3.29151e+00 
2.62500e-01, -1.02560e+00, -1.12265e+01, 3.73874e+00 
2.65000e-01, -1.11896e+00, -1.09753e+01, 4.17628e+00 
2.67500e-01, -1.20796e+00, -1.07112e+01, 4.60361e+00 
2.70000e-01, -1.29261e+00, -1.04346e+01, 5.02023e+00 
2.72500e-01, -1.37291e+00, -1.01459e+01, 5.42567e+00 
2.75000e-01, -1.44889e+00, -9.84562e+00, 5.81945e+00 
2.77500e-01, -1.52055e+00, -9.53419e+00, 6.20114e+00 
2.80000e-01, -1.58793e+00, -9.21209e+00, 6.57029e+00 
2.82500e-01, -1.65103e+00, -8.87978e+00, 6.92651e+00 
2.85000e-01, -1.70989e+00, -8.53778e+00, 7.26939e+00 
2.87500e-01, -1.76454e+00, -8.18658e+00, 7.59858e+00 
2.90000e-01, -1.81501e+00, -7.82670e+00, 7.91372e+00 
2.92500e-01, -1.86135e+00, -7.45867e+00, 8.21447e+00 
2.95000e-01, -1.90360e+00, -7.08304e+00, 8.50053e+00 
2.97500e-01, -1.94180e+00, -6.70033e+00, 8.77162e+00 
3.00000e-01, -1.97601e+00, -6.31112e+00, 9.02746e+00 
3.02500e-01, -2.00627e+00, -5.91596e+00, 9.26781e+00 
3.05000e-01, -2.03263e+00, -5.51541e+00, 9.49245e+00 
3.07500e-01, -2.05517e+00, -5.11006e+00, 9.70118e+00 
3.10000e-01, -2.07394e+00, -4.70046e+00, 9.89383e+00 
3.12500e-01, -2.08900e+00, -4.28722e+00, 1.00702e+01 
3.15000e-01, -2.10042e+00, -3.87090e+00, 1.02303e+01 
3.17500e-01, -2.10827e+00, -3.45209e+00, 1.03738e+01 
3.20000e-01, -2.11263e+00, -3.03138e+00, 1.05008e+01 
3.22500e-01, -2.11357e+00, -2.60937e+00, 1.06112e+01 
3.25000e-01, -2.11117e+00, -2.18662e+00, 1.07049e+01 
3.27500e-01, -2.10550e+00, -1.76373e+00, 1.07819e+01 
3.30000e-01, -2.09665e+00, -1.34129e+00, 1.08422e+01 
3.32500e-01, -2.08470e+00, -9.19869e-01, 1.08859e+01 
3.35000e-01, -2.06975e+00, -5.00047e-01, 1.09130e+01 
3.37500e-01, -2.05187e+00, -8.23971e-02, 1.09236e+01 
3.40000e-01, -2.03115e+00, 3.32513e-01, 1.09178e+01 
3.42500e-01, -2.00769e+00, 7.44123e-01, 1.08956e+01 
3.45000e-01, -1.98159e+00, 1.15188e+00, 1.08574e+01 
3.47500e-01, -1.95292e+00, 1.55523e+00, 1.08031e+01 
3.50000e-01, -1.92180e+00, 1.95364e+00, 1.07330e+01 
3.52500e-01, -1.88831e+00, 2.34658e+00, 1.06474e+01 
3.55000e-01, -1.85255e+00, 2.73353e+00, 1.05463e+01 
3.57500e-01, -1.81462e+00, 3.11397e+00, 1.04302e+01 
3.60000e-01, -1.77463e+00, 3.48742e+00, 1.02991e+01 
3.62500e-01, -1.73266e+00, 3.85338e+00, 1.01535e+01 
3.65000e-01, -1.68883e+00, 4.21138e+00, 9.99369e+00 
3.67500e-01, -1.64323e+00, 4.56096e+00, 9.81989e+00 
3.70000e-01, -1.59596e+00, 4.90166e+00, 9.63250e+00 
3.72500e-01, -1.54712e+00, 5.23306e+00, 9.43187e+00 
3.75000e-01, -1.49683e+00, 5.55474e+00, 9.21838e+00 
3.77500e-01, -1.44516e+00, 5.86628e+00, 8.99241e+00 
3.80000e-01, -1.39224e+00, 6.16732e+00, 8.75439e+00 
3.82500e-01, -1.33816e+00, 6.45746e+00, 8.50472e+00 
3.85000e-01, -1.28301e+00, 6.73636e+00, 8.24385e+00 
3.87500e-01, -1.22691e+00, 7.00368e+00, 7.97223e+00 
3.90000e-01, -1.16995e+00, 7.25910e+00, 7.69032e+00 
3.92500e-01, -1.11223e+00, 7.50232e+00, 7.39860e+00 
3.95000e-01, -1.05384e+00, 7.73306e+00, 7.09756e+00 
3.97500e-01, -9.94894e-01, 7.95104e+00, 6.78768e+00 
4.00000e-01, -9.35476e-01, 8.15603e+00, 6.46949e+00 
4.02500e-01, -8.75685e-01, 8.34780e+00, 6.14350e+00 
4.05000e-01, -8.15616e-01, 8.52614e+00, 5.81023e+00 
4.07500e-01, -7.55360e-01, 8.69087e+00, 5.47021e+00 
4.10000e-01, -6.95009e-01, 8.84181e+00, 5.12400e+00 
4.12500e-01, -6.34655e-01, 8.97883e+00, 4.77213e+00 
4.15000e-01, -5.74384e-01, 9.10179e+00, 4.41516e+00 
4.17500e-01, -5.14284e-01, 9.21060e+00, 4.05365e+00 
4.20000e-01, -4.54440e-01, 9.30515e+00, 3.68815e+00 
4.22500e-01, -3.94935e-01, 9.38541e+00, 3.31922e+00 
4.25000e-01, -3.35852e-01, 9.45130e+00, 2.94744e+00 
4.27500e-01, -2.77269e-01, 9.50283e+00, 2.57336e+00 
4.30000e-01, -2.19264e-01, 9.53997e+00, 2.19757e+00 
4.32500e-01, -1.61913e-01, 9.56275e+00, 1.82061e+00 
4.35000e-01, -1.05290e-01, 9.57122e+00, 1.44307e+00 
4.37500e-01, -4.94643e-02, 9.56542e+00, 1.06549e+00 
4.40000e-01, 5.49370e-03, 9.54544e+00, 6.88452e-01 
4.42500e-01, 5.95178e-02, 9.51137e+00, 3.12501e-01 
4.45000e-01, 1.12544e-01, 9.46334e+00, -6.18064e-02 
4.47500e-01, 1.64509e-01, 9.40148e+00, -4.33923e-01 
4.50000e-01, 2.15355e-01, 9.32595e+00, -8.03307e-01 
4.52500e-01, 2.65025e-01, 9.23692e+00, -1.16942e+00 
4.55000e-01, 3.13463e-01, 9.13460e+00, -1.53174e+00 
4.57500e-01, 3.60618e-01, 9.01920e+00, -1.88974e+00 
4.60000e-01, 4.06442e-01, 8.89094e+00, -2.24292e+00 
4.62500e-01, 4.50886e-01, 8.75009e+00, -2.59077e+00 
4.65000e-01, 4.93907e-01, 8.59689e+00, -2.93279e+00 
4.67500e-01, 5.35465e-01, 8.43164e+00, -3.26852e+00 
4.70000e-01, 5.75519e-01, 8.25464e+00, -3.59747e+00 
4.72500e-01, 6.14034e-01, 8.06620e+00, -3.91920e+00 
4.75000e-01, 6.50977e-01, 7.86665e+00, -4.23326e+00 
4.77500e-01, 6.86317e-01, 7.65634e+00, -4.53921e+00 
4.80000e-01, 7.20026e-01, 7.43562e+00, -4.83665e+00 
4.82500e-01, 7.52079e-01, 7.20487e+00, -5.12517e+00 
4.85000e-01, 7.82454e-01, 6.96448e+00, -5.40437e+00 
4.87500e-01, 8.11131e-01, 6.71485e+00, -5.67390e+00 
4.90000e-01, 8.38092e-01, 6.45637e+00, -5.93339e+00 
4.92500e-01, 8.63323e-01, 6.18948e+00, -6.18250e+00 
4.95000e-01, 8.86813e-01, 5.91461e+00, -6.42092e+00 
4.97500e-01, 9.08553e-01, 5.63221e+00, -6.64833e+00 
5.00000e-01, 9.28535e-01, 5.34271e+00, -6.86445e+00 
5.02500e-01, 9.46756e-01, 5.04658e+00, -7.06901e+00 
5.05000e-01, 9.63214e-01, 4.74429e+00, -7.26175e+00 
5.07500e-01, 9.77911e-01, 4.43631e+00, -7.44245e+00 
5.10000e-01, 9.90851e-01, 4.12313e+00, -7.61088e+00 
5.12500e-01, 1.00204e+00, 3.80523e+00, -7.76686e+00 
5.15000e-01, 1.01148e+00, 3.48311e+00, -7.91021e+00 
5.17500e-01, 1.01920e+00, 3.15725e+00, -8.04077e+00 
5.20000e-01, 1.02519e+00, 2.82816e+00, -8.15841e+00 
5.22500e-01, 1.02948e+00, 2.49634e+00, -8.26301e+00 
5.25000e-01, 1.03209e+00, 2.16230e+00, -8.35447e+00 
5.27500e-01, 1.03303e+00, 1.82654e+00, -8.43271e+00 
5.30000e-01, 1.03232e+00, 1.48956e+00, -8.49768e+00 
5.32500e-01, 1.03000e+00, 1.15188e+00, -8.54934e+00 
5.35000e-01, 1.02608e+00, 8.14003e-01, -8.58767e+00 
5.37500e-01, 1.02060e+00, 4.76424e-01, -8.61269e+00 
5.40000e-01, 1.01358e+00, 1.39648e-01, -8.62439e+00 
5.42500e-01, 1.00506e+00, -1.95826e-01, -8.62284e+00 
5.45000e-01, 9.95063e-01, -5.29505e-01, -8.60810e+00 
5.47500e-01, 9.83635e-01, -8.60898e-01, -8.58023e+00 
5.50000e-01, 9.70808e-01, -1.18952e+00, -8.53935e+00 
5.52500e-01, 9.56622e-01, -1.51490e+00, -8.48558e+00 
5.55000e-01, 9.41115e-01, -1.83655e+00, -8.41904e+00 
5.57500e-01, 9.24329e-01, -2.15402e+00, -8.33991e+00 
5.60000e-01, 9.06307e-01, -2.46685e+00, -8.24834e+00 
5.62500e-01, 8.87092e-01, -2.77459e+00, -8.14454e+00 
5.65000e-01, 8.66729e-01, -3.07680e+00, -8.02872e+00 
5.67500e-01, 8.45264e-01, -3.37306e+00, -7.90110e+00 
5.70000e-01, 8.22744e-01, -3.66294e+00, -7.76192e+00 
5.72500e-01, 7.99218e-01, -3.94603e+00, -7.61145e+00 
5.75000e-01, 7.74734e-01, -4.22194e+00, -7.44996e+00 
5.77500e-01, 7.49341e-01, -4.49029e+00, -7.27775e+00 
5.80000e-01, 7.23091e-01, -4.75071e+00, -7.09511e+00 
5.82500e-01, 6.96033e-01, -5.00283e+00, -6.90238e+00 
5.85000e-01, 6.68220e-01, -5.24631e+00, -6.69988e+00 
5.87500e-01, 6.39704e-01, -5.48082e+00, -6.48796e+00 
5.90000e-01, 6.10536e-01, -5.70605e+00, -6.26698e+00 
5.92500e-01, 5.80770e-01, -5.92169e+00, -6.03732e+00 
5.95000e-01, 5.50458e-01, -6.12746e+00, -5.79936e+00 
5.97500e-01, 5.19654e-01, -6.32308e+00, -5.55349e+00 
6.00000e-01, 4.88411e-01, -6.50831e+00, -5.30012e+00 
6.02500e-01, 4.56781e-01, -6.68291e+00, -5.03967e+00 
6.05000e-01, 4.24819e-01, -6.84664e+00, -4.77256e+00 
6.07500e-01, 3.92576e-01, -6.99932e+00, -4.49922e+00 
6.10000e-01, 3.60106e-01, -7.14076e+00, -4.22008e+00 
6.12500e-01, 3.27460e-01, -7.27077e+00, -3.93561e+00 
6.15000e-01, 2.94692e-01, -7.38922e+00, -3.64625e+00 
6.17500e-01, 2.61853e-01, -7.49597e+00, -3.35247e+00 
6.20000e-01, 2.28993e-01, -7.59090e+00, -3.05471e+00 
6.22500e-01, 1.96164e-01, -7.67391e+00, -2.75347e+00 
6.25000e-01, 1.63414e-01, -7.74492e+00, -2.44919e+00 
6.27500e-01, 1.30795e-01, -7.80388e+00, -2.14237e+00 
6.30000e-01, 9.83527e-02, -7.85073e+00, -1.83348e+00 
6.32500e-01, 6.61364e-02, -7.88545e+00, -1.52298e+00 
6.35000e-01, 3.41924e-02, -7.90804e+00, -1.21138e+00 
6.37500e-01, 2.56641e-03, -7.91851e+00, -8.99131e-01 
6.40000e-01, -2.86967e-02, -7.91687e+00, -5.86725e-01 
6.42500e-01, -5.95531e-02, -7.90319e+00, -2.74634e-01 
6.45000e-01, -8.99602e-02, -7.87753e+00, 3.66668e-02 
6.47500e-01, -1.19876e-01, -7.83996e+00, 3.46707e-01 
6.50000e-01, -1.49262e-01, -7.79059e+00, 6.55019e-01 
6.52500e-01, -1.78077e-01, -7.72954e+00, 9.61140e-01 
6.55000e-01, -2.06283e-01, -7.65694e+00, 1.26461e+00 
6.57500e-01, -2.33846e-01, -7.57293e+00, 1.56498e+00 
6.60000e-01, -2.60729e-01, -7.47770e+00, 1.86180e+00 
6.62500e-01, -2.86898e-01, -7.37142e+00, 2.15464e+00 
6.65000e-01, -3.12323e-01, -7.25429e+00, 2.44305e+00 
6.67500e-01, -3.36970e-01, -7.12653e+00, 2.72663e+00 
6.70000e-01, -3.60813e-01, -6.98837e+00, 3.00494e+00 
6.72500e-01, -3.83822e-01, -6.84005e+00, 3.27760e+00 
6.75000e-01, -4.05971e-01, -6.68183e+00, 3.54420e+00 
6.77500e-01, -4.27236e-01, -6.51400e+00, 3.80435e+00 
6.80000e-01, -4.47593e-01, -6.33683e+00, 4.05769e+00 
6.82500e-01, -4.67022e-01, -6.15063e+00, 4.30385e+00 
6.85000e-01, -4.85502e-01, -5.95570e+00, 4.54249e+00 
6.87500e-01, -5.03016e-01, -5.75238e+00, 4.77326e+00 
6.90000e-01, -5.19545e-01, -5.54101e+00, 4.99584e+00 
6.92500e-01, -5.35077e-01, -5.32192e+00, 5.20992e+00 
6.95000e-01, -5.49597e-01, -5.09548e+00, 5.41520e+00 
6.97500e-01, -5.63093e-01, -4.86205e+00, 5.61141e+00 
7.00000e-01, -5.75557e-01, -4.62202e+00, 5.79827e+00 
7.02500e-01, -5.86979e-01, -4.37577e+00, 5.97553e+00 
7.05000e-01, -5.97352e-01, -4.12369e+00, 6.14295e+00 
7.07500e-01, -6.06673e-01, -3.86618e+00, 6.30032e+00 
7.10000e-01, -6.14937e-01, -3.60366e+00, 6.44742e+00 
7.12500e-01, -6.22143e-01, -3.33654e+00, 6.58408e+00 
7.15000e-01, -6.28291e-01, -3.06524e+00, 6.71010e+00 
7.17500e-01, -6.33381e-01, -2.79018e+00, 6.82535e+00 
7.20000e-01, -6.37418e-01, -2.51180e+00, 6.92967e+00 
7.22500e-01, -6.40405e-01, -2.23053e+00, 7.02295e+00 
7.25000e-01, -6.42350e-01, -1.94680e+00, 7.10508e+00 
7.27500e-01, -6.43258e-01, -1.66105e+00, 7.17598e+00 
7.30000e-01, -6.43141e-01, -1.37373e+00, 7.23557e+00 
7.32500e-01, -6.42008e-01, -1.08527e+00, 7.28380e+00 
7.35000e-01, -6.39870e-01, -7.96123e-01, 7.32064e+00 
7.37500e-01, -6.36743e-01, -5.06722e-01, 7.34606e+00 
7.40000e-01, -6.32640e-01, -2.17511e-01, 7.36007e+00 
7.42500e-01, -6.27577e-01, 7.10727e-02, 7.36269e+00 
7.45000e-01, -6.21572e-01, 3.58592e-01, 7.35394e+00 
7.47500e-01, -6.14644e-01, 6.44612e-01, 7.33387e+00 
7.50000e-01, -6.06812e-01, 9.28704e-01, 7.30257e+00 
7.52500e-01, -5.98098e-01, 1.21044e+00, 7.26010e+00 
7.55000e-01, -5.88523e-01, 1.48941e+00, 7.20658e+00 
7.57500e-01, -5.78111e-01, 1.76518e+00, 7.14211e+00 
7.60000e-01, -5.66886e-01, 2.03735e+00, 7.06684e+00 
7.62500e-01, -5.54873e-01, 2.30552e+00, 6.98092e+00 
7.65000e-01, -5.42100e-01, 2.56929e+00, 6.88450e+00 
7.67500e-01, -5.28592e-01, 2.82828e+00, 6.77778e+00 
7.70000e-01, -5.14377e-01, 3.08210e+00, 6.66095e+00 
7.72500e-01, -4.99486e-01, 3.33038e+00, 6.53422e+00 
7.75000e-01, -4.83947e-01, 3.57277e+00, 6.39781e+00 
7.77500e-01, -4.67790e-01, 3.80892e+00, 6.25197e+00 
7.80000e-01, -4.51046e-01, 4.03847e+00, 6.09695e+00 
7.82500e-01, -4.33747e-01, 4.26111e+00, 5.93302e+00 
7.85000e-01, -4.15926e-01, 4.47651e+00, 5.76045e+00 
7.87500e-01, -3.97614e-01, 4.68437e+00, 5.57954e+00 
7.90000e-01, -3.78844e-01, 4.88440e+00, 5.39059e+00 
7.92500e-01, -3.59650e-01, 5.07631e+00, 5.19391e+00 
7.95000e-01, -3.40066e-01, 5.25984e+00, 4.98984e+00 
7.97500e-01, -3.20126e-01, 5.43474e+00, 4.77871e+00 
8.00000e-01, -2.99863e-01, 5.60075e+00, 4.56085e+00 
8.02500e-01, -2.79313e-01, 5.75766e+00, 4.33664e+00 
8.05000e-01, -2.58510e-01, 5.90525e+00, 4.10643e+00 
8.07500e-01, -2.37489e-01, 6.04333e+00, 3.87059e+00 
8.10000e-01, -2.16283e-01, 6.17171e+00, 3.62950e+00 
8.12500e-01, -1.94929e-01, 6.29023e+00, 3.38355e+00 
8.15000e-01, -1.73459e-01, 6.39873e+00, 3.13314e+00 
8.17500e-01, -1.51910e-01, 6.49708e+00, 2.87865e+00 
8.20000e-01, -1.30314e-01, 6.58517e+00, 2.62049e+00 
8.22500e-01, -1.08706e-01, 6.66287e+00, 2.35907e+00 
8.25000e-01, -8.71199e-02, 6.73012e+00, 2.09480e+00 
8.27500e-01, -6.55886e-02, 6.78683e+00, 1.82809e+00 
8.30000e-01, -4.41452e-02, 6.83294e+00, 1.55937e+00 
8.32500e-01, -2.28223e-02, 6.86843e+00, 1.28904e+00 
8.35000e-01, -1.65191e-03, 6.89326e+00, 1.01753e+00 
8.37500e-01, 1.93343e-02, 6.90743e+00, 7.45267e-01 
8.40000e-01, 4.01055e-02, 6.91095e+00, 4.72660e-01 
8.42500e-01, 6.06310e-02, 6.90384e+00, 2.00133e-01 
8.45000e-01, 8.08813e-02, 6.88614e+00, -7.18952e-02 
8.47500e-01, 1.00827e-01, 6.85792e+00, -3.43009e-01 
8.50000e-01, 1.20440e-01, 6.81924e+00, -6.12794e-01 
8.52500e-01, 1.39693e-01, 6.77019e+00, -8.80840e-01 
8.55000e-01, 1.58558e-01, 6.71089e+00, -1.14674e+00 
8.57500e-01, 1.77010e-01, 6.64144e+00, -1.41009e+00 
8.60000e-01, 1.95023e-01, 6.56198e+00, -1.67050e+00 
8.62500e-01, 2.12574e-01, 6.47266e+00, -1.92757e+00 
8.65000e-01, 2.29639e-01, 6.37365e+00, -2.18091e+00 
8.67500e-01, 2.46195e-01, 6.26512e+00, -2.43015e+00 
8.70000e-01, 2.62221e-01, 6.14727e+00, -2.67492e+00 
8.72500e-01, 2.77697e-01, 6.02031e+00, -2.91486e+00 
8.75000e-01, 2.92602e-01, 5.88444e+00, -3.14960e+00 
8.77500e-01, 3.06920e-01, 5.73992e+00, -3.37880e+00 
8.80000e-01, 3.20631e-01, 5.58697e+00, -3.60213e+00 
8.82500e-01, 3.33721e-01, 5.42585e+00, -3.81926e+00 
8.85000e-01, 3.46173e-01, 5.25685e+00, -4.02986e+00 
8.87500e-01, 3.57974e-01, 5.08023e+00, -4.23365e+00 
8.90000e-01, 3.69111e-01, 4.89629e+00, -4.43031e+00 
8.92500e-01, 3.79572e-01, 4.70533e+00, -4.61958e+00 
8.95000e-01, 3.89346e-01, 4.50765e+00, -4.80117e+00 
8.97500e-01, 3.98423e-01, 4.30359e+00, -4.97483e+00 
9.00000e-01, 4.06796e-01, 4.09347e+00, -5.14032e+00 
9.02500e-01, 4.14456e-01, 3.87763e+00, -5.29740e+00 
9.05000e-01, 4.21398e-01, 3.65641e+00, -5.44586e+00 
9.07500e-01, 4.27617e-01, 3.43017e+00, -5.58548e+00 
9.10000e-01, 4.33109e-01, 3.19926e+00, -5.71608e+00 
9.12500e-01, 4.37871e-01, 2.96406e+00, -5.83749e+00 
9.15000e-01, 4.41901e-01, 2.72494e+00, -5.94953e+00 
9.17500e-01, 4.45200e-01, 2.48227e+00, -6.05207e+00 
9.20000e-01, 4.47768e-01, 2.23643e+00, -6.14497e+00 
9.22500e-01, 4.49606e-01, 1.98781e+00, -6.22811e+00 
9.25000e-01, 4.50719e-01, 1.73679e+00, -6.30139e+00 
9.27500e-01, 4.51109e-01, 1.48378e+00, -6.36473e+00 
9.30000e-01, 4.50782e-01, 1.22915e+00, -6.41806e+00 
