r(m), B_r(T), B_theta(T), B_z(T) 
0.00000e+00, 1.57127e+00, 1.57127e+00, -0.00000e+00 
2.50000e-03, 1.57127e+00, 1.57127e+00, -2.09635e-03 
5.00000e-03, 1.57126e+00, 1.57126e+00, -4.19270e-03 
7.50000e-03, 1.57126e+00, 1.57125e+00, -6.28903e-03 
1.00000e-02, 1.57124e+00, 1.57123e+00, -8.38533e-03 
1.25000e-02, 1.57123e+00, 1.57121e+00, -1.04816e-02 
1.50000e-02, 1.57121e+00, 1.57118e+00, -1.25778e-02 
1.75000e-02, 1.57119e+00, 1.57115e+00, -1.46740e-02 
2.00000e-02, 1.57116e+00, 1.57112e+00, -1.67701e-02 
2.25000e-02, 1.57113e+00, 1.57108e+00, -1.88662e-02 
2.50000e-02, 1.57110e+00, 1.57103e+00, -2.09622e-02 
2.75000e-02, 1.57106e+00, 1.57098e+00, -2.30581e-02 
3.00000e-02, 1.57102e+00, 1.57092e+00, -2.51539e-02 
3.25000e-02, 1.57098e+00, 1.57086e+00, -2.72496e-02 
3.50000e-02, 1.57094e+00, 1.57080e+00, -2.93452e-02 
3.75000e-02, 1.57089e+00, 1.57073e+00, -3.14407e-02 
4.00000e-02, 1.57083e+00, 1.57065e+00, -3.35361e-02 
4.25000e-02, 1.57078e+00, 1.57058e+00, -3.56313e-02 
4.50000e-02, 1.57072e+00, 1.57049e+00, -3.77264e-02 
4.75000e-02, 1.57065e+00, 1.57040e+00, -3.98213e-02 
5.00000e-02, 1.57059e+00, 1.57031e+00, -4.19161e-02 
5.25000e-02, 1.57052e+00, 1.57021e+00, -4.40107e-02 
5.50000e-02, 1.57044e+00, 1.57011e+00, -4.61052e-02 
5.75000e-02, 1.57037e+00, 1.57000e+00, -4.81995e-02 
6.00000e-02, 1.57029e+00, 1.56988e+00, -5.02935e-02 
6.25000e-02, 1.57020e+00, 1.56977e+00, -5.23874e-02 
6.50000e-02, 1.57012e+00, 1.56964e+00, -5.44811e-02 
6.75000e-02, 1.57003e+00, 1.56952e+00, -5.65746e-02 
7.00000e-02, 1.56993e+00, 1.56938e+00, -5.86678e-02 
7.25000e-02, 1.56983e+00, 1.56925e+00, -6.07608e-02 
7.50000e-02, 1.56973e+00, 1.56910e+00, -6.28536e-02 
7.75000e-02, 1.56963e+00, 1.56896e+00, -6.49461e-02 
8.00000e-02, 1.56952e+00, 1.56881e+00, -6.70384e-02 
8.25000e-02, 1.56941e+00, 1.56865e+00, -6.91304e-02 
8.50000e-02, 1.56930e+00, 1.56849e+00, -7.12221e-02 
8.75000e-02, 1.56918e+00, 1.56832e+00, -7.33136e-02 
9.00000e-02, 1.56906e+00, 1.56815e+00, -7.54047e-02 
9.25000e-02, 1.56893e+00, 1.56798e+00, -7.74956e-02 
9.50000e-02, 1.56880e+00, 1.56780e+00, -7.95861e-02 
9.75000e-02, 1.56867e+00, 1.56761e+00, -8.16764e-02 
1.00000e-01, 1.56854e+00, 1.56742e+00, -8.37663e-02 
1.02500e-01, 1.56840e+00, 1.56723e+00, -8.58559e-02 
1.05000e-01, 1.56826e+00, 1.56703e+00, -8.79452e-02 
1.07500e-01, 1.56811e+00, 1.56682e+00, -9.00341e-02 
1.10000e-01, 1.56796e+00, 1.56661e+00, -9.21227e-02 
1.12500e-01, 1.56781e+00, 1.56640e+00, -9.42109e-02 
1.15000e-01, 1.56766e+00, 1.56618e+00, -9.62987e-02 
1.17500e-01, 1.56750e+00, 1.56596e+00, -9.83862e-02 
1.20000e-01, 1.56734e+00, 1.56573e+00, -1.00473e-01 
1.22500e-01, 1.56717e+00, 1.56549e+00, -1.02560e-01 
1.25000e-01, 1.56700e+00, 1.56526e+00, -1.04646e-01 
1.27500e-01, 1.56683e+00, 1.56501e+00, -1.06732e-01 
1.30000e-01, 1.56665e+00, 1.56476e+00, -1.08817e-01 
1.32500e-01, 1.56647e+00, 1.56451e+00, -1.10902e-01 
1.35000e-01, 1.56629e+00, 1.56426e+00, -1.12987e-01 
1.37500e-01, 1.56611e+00, 1.56399e+00, -1.15071e-01 
1.40000e-01, 1.56592e+00, 1.56373e+00, -1.17155e-01 
1.42500e-01, 1.56572e+00, 1.56346e+00, -1.19238e-01 
1.45000e-01, 1.56553e+00, 1.56318e+00, -1.21321e-01 
1.47500e-01, 1.56533e+00, 1.56290e+00, -1.23403e-01 
1.50000e-01, 1.56513e+00, 1.56261e+00, -1.25485e-01 
1.52500e-01, 1.56492e+00, 1.56232e+00, -1.27566e-01 
1.55000e-01, 1.56471e+00, 1.56203e+00, -1.29647e-01 
1.57500e-01, 1.56450e+00, 1.56173e+00, -1.31727e-01 
1.60000e-01, 1.56428e+00, 1.56142e+00, -1.33807e-01 
1.62500e-01, 1.56406e+00, 1.56111e+00, -1.35886e-01 
1.65000e-01, 1.56384e+00, 1.56080e+00, -1.37965e-01 
1.67500e-01, 1.56361e+00, 1.56048e+00, -1.40043e-01 
1.70000e-01, 1.56338e+00, 1.56015e+00, -1.42121e-01 
1.72500e-01, 1.56315e+00, 1.55982e+00, -1.44198e-01 
1.75000e-01, 1.56291e+00, 1.55949e+00, -1.46274e-01 
1.77500e-01, 1.56267e+00, 1.55915e+00, -1.48350e-01 
1.80000e-01, 1.56243e+00, 1.55881e+00, -1.50426e-01 
1.82500e-01, 1.56218e+00, 1.55846e+00, -1.52500e-01 
1.85000e-01, 1.56193e+00, 1.55811e+00, -1.54574e-01 
1.87500e-01, 1.56167e+00, 1.55775e+00, -1.56648e-01 
1.90000e-01, 1.56142e+00, 1.55739e+00, -1.58721e-01 
1.92500e-01, 1.56116e+00, 1.55702e+00, -1.60793e-01 
1.95000e-01, 1.56089e+00, 1.55665e+00, -1.62865e-01 
1.97500e-01, 1.56062e+00, 1.55627e+00, -1.64936e-01 
2.00000e-01, 1.56035e+00, 1.55589e+00, -1.67006e-01 
2.02500e-01, 1.56008e+00, 1.55551e+00, -1.69076e-01 
2.05000e-01, 1.55980e+00, 1.55511e+00, -1.71145e-01 
2.07500e-01, 1.55952e+00, 1.55472e+00, -1.73213e-01 
2.10000e-01, 1.55924e+00, 1.55432e+00, -1.75281e-01 
2.12500e-01, 1.55895e+00, 1.55391e+00, -1.77348e-01 
2.15000e-01, 1.55866e+00, 1.55350e+00, -1.79414e-01 
2.17500e-01, 1.55836e+00, 1.55309e+00, -1.81480e-01 
2.20000e-01, 1.55807e+00, 1.55267e+00, -1.83545e-01 
2.22500e-01, 1.55777e+00, 1.55225e+00, -1.85609e-01 
2.25000e-01, 1.55746e+00, 1.55182e+00, -1.87673e-01 
2.27500e-01, 1.55715e+00, 1.55138e+00, -1.89735e-01 
2.30000e-01, 1.55684e+00, 1.55095e+00, -1.91797e-01 
2.32500e-01, 1.55653e+00, 1.55050e+00, -1.93858e-01 
2.35000e-01, 1.55621e+00, 1.55006e+00, -1.95919e-01 
2.37500e-01, 1.55589e+00, 1.54960e+00, -1.97979e-01 
2.40000e-01, 1.55556e+00, 1.54915e+00, -2.00037e-01 
2.42500e-01, 1.55524e+00, 1.54868e+00, -2.02096e-01 
2.45000e-01, 1.55490e+00, 1.54822e+00, -2.04153e-01 
2.47500e-01, 1.55457e+00, 1.54775e+00, -2.06209e-01 
2.50000e-01, 1.55423e+00, 1.54727e+00, -2.08265e-01 
2.52500e-01, 1.55389e+00, 1.54679e+00, -2.10320e-01 
2.55000e-01, 1.55355e+00, 1.54630e+00, -2.12374e-01 
2.57500e-01, 1.55320e+00, 1.54581e+00, -2.14427e-01 
2.60000e-01, 1.55285e+00, 1.54532e+00, -2.16480e-01 
2.62500e-01, 1.55249e+00, 1.54482e+00, -2.18531e-01 
2.65000e-01, 1.55213e+00, 1.54432e+00, -2.20582e-01 
2.67500e-01, 1.55177e+00, 1.54381e+00, -2.22632e-01 
2.70000e-01, 1.55141e+00, 1.54329e+00, -2.24681e-01 
2.72500e-01, 1.55104e+00, 1.54277e+00, -2.26729e-01 
2.75000e-01, 1.55067e+00, 1.54225e+00, -2.28776e-01 
2.77500e-01, 1.55029e+00, 1.54172e+00, -2.30822e-01 
2.80000e-01, 1.54991e+00, 1.54119e+00, -2.32868e-01 
2.82500e-01, 1.54953e+00, 1.54065e+00, -2.34912e-01 
2.85000e-01, 1.54915e+00, 1.54011e+00, -2.36956e-01 
2.87500e-01, 1.54876e+00, 1.53957e+00, -2.38998e-01 
2.90000e-01, 1.54837e+00, 1.53901e+00, -2.41040e-01 
2.92500e-01, 1.54797e+00, 1.53846e+00, -2.43081e-01 
2.95000e-01, 1.54757e+00, 1.53790e+00, -2.45120e-01 
2.97500e-01, 1.54717e+00, 1.53733e+00, -2.47159e-01 
3.00000e-01, 1.54677e+00, 1.53676e+00, -2.49197e-01 
3.02500e-01, 1.54636e+00, 1.53619e+00, -2.51234e-01 
3.05000e-01, 1.54595e+00, 1.53561e+00, -2.53270e-01 
3.07500e-01, 1.54553e+00, 1.53502e+00, -2.55304e-01 
3.10000e-01, 1.54512e+00, 1.53444e+00, -2.57338e-01 
3.12500e-01, 1.54469e+00, 1.53384e+00, -2.59371e-01 
3.15000e-01, 1.54427e+00, 1.53324e+00, -2.61403e-01 
3.17500e-01, 1.54384e+00, 1.53264e+00, -2.63434e-01 
3.20000e-01, 1.54341e+00, 1.53203e+00, -2.65464e-01 
3.22500e-01, 1.54297e+00, 1.53142e+00, -2.67492e-01 
3.25000e-01, 1.54254e+00, 1.53081e+00, -2.69520e-01 
3.27500e-01, 1.54209e+00, 1.53018e+00, -2.71547e-01 
3.30000e-01, 1.54165e+00, 1.52956e+00, -2.73572e-01 
3.32500e-01, 1.54120e+00, 1.52893e+00, -2.75597e-01 
3.35000e-01, 1.54075e+00, 1.52829e+00, -2.77620e-01 
3.37500e-01, 1.54030e+00, 1.52765e+00, -2.79642e-01 
3.40000e-01, 1.53984e+00, 1.52701e+00, -2.81664e-01 
3.42500e-01, 1.53938e+00, 1.52636e+00, -2.83684e-01 
3.45000e-01, 1.53891e+00, 1.52571e+00, -2.85703e-01 
3.47500e-01, 1.53844e+00, 1.52505e+00, -2.87721e-01 
3.50000e-01, 1.53797e+00, 1.52438e+00, -2.89737e-01 
3.52500e-01, 1.53750e+00, 1.52372e+00, -2.91753e-01 
3.55000e-01, 1.53702e+00, 1.52304e+00, -2.93767e-01 
3.57500e-01, 1.53654e+00, 1.52237e+00, -2.95781e-01 
3.60000e-01, 1.53605e+00, 1.52169e+00, -2.97793e-01 
3.62500e-01, 1.53557e+00, 1.52100e+00, -2.99804e-01 
3.65000e-01, 1.53508e+00, 1.52031e+00, -3.01814e-01 
3.67500e-01, 1.53458e+00, 1.51961e+00, -3.03822e-01 
3.70000e-01, 1.53408e+00, 1.51891e+00, -3.05830e-01 
3.72500e-01, 1.53358e+00, 1.51821e+00, -3.07836e-01 
3.75000e-01, 1.53308e+00, 1.51750e+00, -3.09841e-01 
3.77500e-01, 1.53257e+00, 1.51679e+00, -3.11845e-01 
3.80000e-01, 1.53206e+00, 1.51607e+00, -3.13847e-01 
3.82500e-01, 1.53155e+00, 1.51535e+00, -3.15849e-01 
3.85000e-01, 1.53103e+00, 1.51462e+00, -3.17849e-01 
3.87500e-01, 1.53051e+00, 1.51389e+00, -3.19848e-01 
3.90000e-01, 1.52999e+00, 1.51315e+00, -3.21845e-01 
3.92500e-01, 1.52946e+00, 1.51241e+00, -3.23842e-01 
3.95000e-01, 1.52893e+00, 1.51166e+00, -3.25837e-01 
3.97500e-01, 1.52840e+00, 1.51091e+00, -3.27830e-01 
4.00000e-01, 1.52786e+00, 1.51016e+00, -3.29823e-01 
4.02500e-01, 1.52732e+00, 1.50940e+00, -3.31814e-01 
4.05000e-01, 1.52678e+00, 1.50863e+00, -3.33804e-01 
4.07500e-01, 1.52623e+00, 1.50787e+00, -3.35793e-01 
4.10000e-01, 1.52568e+00, 1.50709e+00, -3.37780e-01 
4.12500e-01, 1.52513e+00, 1.50631e+00, -3.39766e-01 
4.15000e-01, 1.52457e+00, 1.50553e+00, -3.41750e-01 
4.17500e-01, 1.52401e+00, 1.50475e+00, -3.43734e-01 
4.20000e-01, 1.52345e+00, 1.50395e+00, -3.45716e-01 
4.22500e-01, 1.52288e+00, 1.50316e+00, -3.47696e-01 
4.25000e-01, 1.52231e+00, 1.50236e+00, -3.49676e-01 
4.27500e-01, 1.52174e+00, 1.50155e+00, -3.51653e-01 
4.30000e-01, 1.52116e+00, 1.50074e+00, -3.53630e-01 
4.32500e-01, 1.52058e+00, 1.49993e+00, -3.55605e-01 
4.35000e-01, 1.52000e+00, 1.49911e+00, -3.57579e-01 
4.37500e-01, 1.51942e+00, 1.49829e+00, -3.59551e-01 
4.40000e-01, 1.51883e+00, 1.49746e+00, -3.61522e-01 
4.42500e-01, 1.51824e+00, 1.49663e+00, -3.63491e-01 
4.45000e-01, 1.51764e+00, 1.49579e+00, -3.65459e-01 
4.47500e-01, 1.51704e+00, 1.49495e+00, -3.67426e-01 
4.50000e-01, 1.51644e+00, 1.49411e+00, -3.69391e-01 
4.52500e-01, 1.51584e+00, 1.49326e+00, -3.71355e-01 
4.55000e-01, 1.51523e+00, 1.49240e+00, -3.73317e-01 
4.57500e-01, 1.51462e+00, 1.49154e+00, -3.75278e-01 
4.60000e-01, 1.51400e+00, 1.49068e+00, -3.77237e-01 
4.62500e-01, 1.51339e+00, 1.48981e+00, -3.79195e-01 
4.65000e-01, 1.51276e+00, 1.48894e+00, -3.81151e-01 
4.67500e-01, 1.51214e+00, 1.48806e+00, -3.83106e-01 
4.70000e-01, 1.51151e+00, 1.48718e+00, -3.85059e-01 
4.72500e-01, 1.51088e+00, 1.48629e+00, -3.87011e-01 
4.75000e-01, 1.51025e+00, 1.48540e+00, -3.88962e-01 
4.77500e-01, 1.50961e+00, 1.48451e+00, -3.90910e-01 
4.80000e-01, 1.50897e+00, 1.48361e+00, -3.92858e-01 
4.82500e-01, 1.50833e+00, 1.48270e+00, -3.94803e-01 
4.85000e-01, 1.50768e+00, 1.48180e+00, -3.96748e-01 
4.87500e-01, 1.50703e+00, 1.48088e+00, -3.98690e-01 
4.90000e-01, 1.50638e+00, 1.47997e+00, -4.00631e-01 
4.92500e-01, 1.50572e+00, 1.47904e+00, -4.02571e-01 
4.95000e-01, 1.50506e+00, 1.47812e+00, -4.04509e-01 
4.97500e-01, 1.50440e+00, 1.47719e+00, -4.06445e-01 
5.00000e-01, 1.50374e+00, 1.47625e+00, -4.08380e-01 
5.02500e-01, 1.50307e+00, 1.47531e+00, -4.10313e-01 
5.05000e-01, 1.50240e+00, 1.47437e+00, -4.12244e-01 
5.07500e-01, 1.50172e+00, 1.47342e+00, -4.14174e-01 
5.10000e-01, 1.50104e+00, 1.47247e+00, -4.16103e-01 
5.12500e-01, 1.50036e+00, 1.47151e+00, -4.18029e-01 
5.15000e-01, 1.49968e+00, 1.47055e+00, -4.19954e-01 
5.17500e-01, 1.49899e+00, 1.46959e+00, -4.21878e-01 
5.20000e-01, 1.49830e+00, 1.46862e+00, -4.23799e-01 
5.22500e-01, 1.49761e+00, 1.46764e+00, -4.25719e-01 
5.25000e-01, 1.49691e+00, 1.46666e+00, -4.27638e-01 
5.27500e-01, 1.49621e+00, 1.46568e+00, -4.29555e-01 
5.30000e-01, 1.49550e+00, 1.46469e+00, -4.31470e-01 
5.32500e-01, 1.49480e+00, 1.46370e+00, -4.33383e-01 
5.35000e-01, 1.49409e+00, 1.46270e+00, -4.35295e-01 
5.37500e-01, 1.49338e+00, 1.46170e+00, -4.37205e-01 
5.40000e-01, 1.49266e+00, 1.46070e+00, -4.39113e-01 
5.42500e-01, 1.49194e+00, 1.45969e+00, -4.41019e-01 
5.45000e-01, 1.49122e+00, 1.45867e+00, -4.42924e-01 
5.47500e-01, 1.49049e+00, 1.45765e+00, -4.44827e-01 
5.50000e-01, 1.48976e+00, 1.45663e+00, -4.46728e-01 
5.52500e-01, 1.48903e+00, 1.45560e+00, -4.48628e-01 
5.55000e-01, 1.48830e+00, 1.45457e+00, -4.50526e-01 
5.57500e-01, 1.48756e+00, 1.45354e+00, -4.52422e-01 
5.60000e-01, 1.48682e+00, 1.45250e+00, -4.54316e-01 
5.62500e-01, 1.48608e+00, 1.45145e+00, -4.56209e-01 
5.65000e-01, 1.48533e+00, 1.45040e+00, -4.58099e-01 
5.67500e-01, 1.48458e+00, 1.44935e+00, -4.59988e-01 
5.70000e-01, 1.48382e+00, 1.44829e+00, -4.61875e-01 
5.72500e-01, 1.48307e+00, 1.44723e+00, -4.63761e-01 
5.75000e-01, 1.48231e+00, 1.44617e+00, -4.65644e-01 
5.77500e-01, 1.48155e+00, 1.44510e+00, -4.67526e-01 
5.80000e-01, 1.48078e+00, 1.44402e+00, -4.69405e-01 
5.82500e-01, 1.48001e+00, 1.44294e+00, -4.71283e-01 
5.85000e-01, 1.47924e+00, 1.44186e+00, -4.73160e-01 
5.87500e-01, 1.47846e+00, 1.44077e+00, -4.75034e-01 
5.90000e-01, 1.47769e+00, 1.43968e+00, -4.76906e-01 
5.92500e-01, 1.47691e+00, 1.43859e+00, -4.78777e-01 
5.95000e-01, 1.47612e+00, 1.43749e+00, -4.80646e-01 
5.97500e-01, 1.47533e+00, 1.43638e+00, -4.82512e-01 
6.00000e-01, 1.47454e+00, 1.43527e+00, -4.84377e-01 
6.02500e-01, 1.47375e+00, 1.43416e+00, -4.86240e-01 
6.05000e-01, 1.47295e+00, 1.43304e+00, -4.88101e-01 
6.07500e-01, 1.47215e+00, 1.43192e+00, -4.89961e-01 
6.10000e-01, 1.47135e+00, 1.43079e+00, -4.91818e-01 
6.12500e-01, 1.47055e+00, 1.42966e+00, -4.93673e-01 
6.15000e-01, 1.46974e+00, 1.42853e+00, -4.95527e-01 
6.17500e-01, 1.46893e+00, 1.42739e+00, -4.97378e-01 
6.20000e-01, 1.46811e+00, 1.42625e+00, -4.99228e-01 
6.22500e-01, 1.46729e+00, 1.42510e+00, -5.01075e-01 
6.25000e-01, 1.46647e+00, 1.42395e+00, -5.02921e-01 
6.27500e-01, 1.46565e+00, 1.42280e+00, -5.04765e-01 
6.30000e-01, 1.46482e+00, 1.42164e+00, -5.06606e-01 
6.32500e-01, 1.46399e+00, 1.42047e+00, -5.08446e-01 
6.35000e-01, 1.46316e+00, 1.41930e+00, -5.10284e-01 
6.37500e-01, 1.46232e+00, 1.41813e+00, -5.12120e-01 
6.40000e-01, 1.46148e+00, 1.41696e+00, -5.13953e-01 
6.42500e-01, 1.46064e+00, 1.41578e+00, -5.15785e-01 
6.45000e-01, 1.45980e+00, 1.41459e+00, -5.17615e-01 
6.47500e-01, 1.45895e+00, 1.41340e+00, -5.19442e-01 
6.50000e-01, 1.45810e+00, 1.41221e+00, -5.21268e-01 
6.52500e-01, 1.45724e+00, 1.41101e+00, -5.23092e-01 
6.55000e-01, 1.45639e+00, 1.40981e+00, -5.24913e-01 
6.57500e-01, 1.45553e+00, 1.40861e+00, -5.26733e-01 
6.60000e-01, 1.45466e+00, 1.40740e+00, -5.28550e-01 
6.62500e-01, 1.45380e+00, 1.40618e+00, -5.30366e-01 
6.65000e-01, 1.45293e+00, 1.40496e+00, -5.32179e-01 
6.67500e-01, 1.45206e+00, 1.40374e+00, -5.33990e-01 
6.70000e-01, 1.45118e+00, 1.40252e+00, -5.35799e-01 
6.72500e-01, 1.45030e+00, 1.40129e+00, -5.37606e-01 
6.75000e-01, 1.44942e+00, 1.40005e+00, -5.39411e-01 
6.77500e-01, 1.44854e+00, 1.39881e+00, -5.41214e-01 
6.80000e-01, 1.44765e+00, 1.39757e+00, -5.43015e-01 
6.82500e-01, 1.44676e+00, 1.39632e+00, -5.44813e-01 
6.85000e-01, 1.44587e+00, 1.39507e+00, -5.46610e-01 
6.87500e-01, 1.44497e+00, 1.39382e+00, -5.48404e-01 
6.90000e-01, 1.44407e+00, 1.39256e+00, -5.50196e-01 
6.92500e-01, 1.44317e+00, 1.39130e+00, -5.51986e-01 
6.95000e-01, 1.44227e+00, 1.39003e+00, -5.53774e-01 
6.97500e-01, 1.44136e+00, 1.38876e+00, -5.55560e-01 
7.00000e-01, 1.44045e+00, 1.38748e+00, -5.57343e-01 
7.02500e-01, 1.43954e+00, 1.38620e+00, -5.59125e-01 
7.05000e-01, 1.43862e+00, 1.38492e+00, -5.60904e-01 
7.07500e-01, 1.43770e+00, 1.38363e+00, -5.62681e-01 
7.10000e-01, 1.43678e+00, 1.38234e+00, -5.64456e-01 
7.12500e-01, 1.43585e+00, 1.38105e+00, -5.66228e-01 
7.15000e-01, 1.43492e+00, 1.37975e+00, -5.67999e-01 
7.17500e-01, 1.43399e+00, 1.37844e+00, -5.69767e-01 
7.20000e-01, 1.43306e+00, 1.37713e+00, -5.71533e-01 
7.22500e-01, 1.43212e+00, 1.37582e+00, -5.73296e-01 
7.25000e-01, 1.43118e+00, 1.37451e+00, -5.75058e-01 
7.27500e-01, 1.43024e+00, 1.37319e+00, -5.76817e-01 
7.30000e-01, 1.42929e+00, 1.37186e+00, -5.78574e-01 
7.32500e-01, 1.42835e+00, 1.37054e+00, -5.80329e-01 
7.35000e-01, 1.42739e+00, 1.36920e+00, -5.82081e-01 
7.37500e-01, 1.42644e+00, 1.36787e+00, -5.83831e-01 
7.40000e-01, 1.42548e+00, 1.36653e+00, -5.85579e-01 
7.42500e-01, 1.42452e+00, 1.36519e+00, -5.87325e-01 
7.45000e-01, 1.42356e+00, 1.36384e+00, -5.89068e-01 
7.47500e-01, 1.42259e+00, 1.36249e+00, -5.90809e-01 
7.50000e-01, 1.42162e+00, 1.36113e+00, -5.92548e-01 
7.52500e-01, 1.42065e+00, 1.35977e+00, -5.94284e-01 
7.55000e-01, 1.41968e+00, 1.35841e+00, -5.96018e-01 
7.57500e-01, 1.41870e+00, 1.35704e+00, -5.97750e-01 
7.60000e-01, 1.41772e+00, 1.35567e+00, -5.99479e-01 
7.62500e-01, 1.41674e+00, 1.35429e+00, -6.01206e-01 
7.65000e-01, 1.41575e+00, 1.35292e+00, -6.02931e-01 
7.67500e-01, 1.41476e+00, 1.35153e+00, -6.04653e-01 
7.70000e-01, 1.41377e+00, 1.35015e+00, -6.06373e-01 
7.72500e-01, 1.41278e+00, 1.34875e+00, -6.08091e-01 
7.75000e-01, 1.41178e+00, 1.34736e+00, -6.09806e-01 
7.77500e-01, 1.41078e+00, 1.34596e+00, -6.11519e-01 
7.80000e-01, 1.40978e+00, 1.34456e+00, -6.13230e-01 
7.82500e-01, 1.40877e+00, 1.34315e+00, -6.14938e-01 
7.85000e-01, 1.40776e+00, 1.34174e+00, -6.16643e-01 
7.87500e-01, 1.40675e+00, 1.34033e+00, -6.18347e-01 
7.90000e-01, 1.40574e+00, 1.33891e+00, -6.20048e-01 
7.92500e-01, 1.40472e+00, 1.33749e+00, -6.21746e-01 
7.95000e-01, 1.40370e+00, 1.33606e+00, -6.23442e-01 
7.97500e-01, 1.40268e+00, 1.33463e+00, -6.25136e-01 
8.00000e-01, 1.40165e+00, 1.33320e+00, -6.26827e-01 
8.02500e-01, 1.40062e+00, 1.33176e+00, -6.28516e-01 
8.05000e-01, 1.39959e+00, 1.33032e+00, -6.30202e-01 
8.07500e-01, 1.39856e+00, 1.32888e+00, -6.31886e-01 
8.10000e-01, 1.39752e+00, 1.32743e+00, -6.33567e-01 
8.12500e-01, 1.39648e+00, 1.32597e+00, -6.35246e-01 
8.15000e-01, 1.39544e+00, 1.32452e+00, -6.36922e-01 
8.17500e-01, 1.39439e+00, 1.32306e+00, -6.38596e-01 
8.20000e-01, 1.39335e+00, 1.32159e+00, -6.40268e-01 
8.22500e-01, 1.39230e+00, 1.32013e+00, -6.41937e-01 
8.25000e-01, 1.39124e+00, 1.31865e+00, -6.43603e-01 
8.27500e-01, 1.39019e+00, 1.31718e+00, -6.45267e-01 
8.30000e-01, 1.38913e+00, 1.31570e+00, -6.46928e-01 
8.32500e-01, 1.38807e+00, 1.31422e+00, -6.48587e-01 
8.35000e-01, 1.38700e+00, 1.31273e+00, -6.50244e-01 
8.37500e-01, 1.38593e+00, 1.31124e+00, -6.51897e-01 
8.40000e-01, 1.38486e+00, 1.30975e+00, -6.53549e-01 
8.42500e-01, 1.38379e+00, 1.30825e+00, -6.55197e-01 
8.45000e-01, 1.38272e+00, 1.30675e+00, -6.56844e-01 
8.47500e-01, 1.38164e+00, 1.30524e+00, -6.58487e-01 
8.50000e-01, 1.38056e+00, 1.30373e+00, -6.60128e-01 
8.52500e-01, 1.37947e+00, 1.30222e+00, -6.61767e-01 
8.55000e-01, 1.37839e+00, 1.30070e+00, -6.63403e-01 
8.57500e-01, 1.37730e+00, 1.29918e+00, -6.65036e-01 
8.60000e-01, 1.37621e+00, 1.29766e+00, -6.66667e-01 
8.62500e-01, 1.37511e+00, 1.29613e+00, -6.68295e-01 
8.65000e-01, 1.37402e+00, 1.29460e+00, -6.69920e-01 
8.67500e-01, 1.37292e+00, 1.29306e+00, -6.71543e-01 
8.70000e-01, 1.37181e+00, 1.29153e+00, -6.73163e-01 
8.72500e-01, 1.37071e+00, 1.28998e+00, -6.74781e-01 
8.75000e-01, 1.36960e+00, 1.28844e+00, -6.76396e-01 
8.77500e-01, 1.36849e+00, 1.28689e+00, -6.78009e-01 
8.80000e-01, 1.36738e+00, 1.28533e+00, -6.79618e-01 
8.82500e-01, 1.36626e+00, 1.28378e+00, -6.81226e-01 
8.85000e-01, 1.36514e+00, 1.28222e+00, -6.82830e-01 
8.87500e-01, 1.36402e+00, 1.28065e+00, -6.84432e-01 
8.90000e-01, 1.36290e+00, 1.27909e+00, -6.86031e-01 
8.92500e-01, 1.36177e+00, 1.27751e+00, -6.87627e-01 
8.95000e-01, 1.36064e+00, 1.27594e+00, -6.89221e-01 
8.97500e-01, 1.35951e+00, 1.27436e+00, -6.90812e-01 
9.00000e-01, 1.35838e+00, 1.27278e+00, -6.92401e-01 
9.02500e-01, 1.35724e+00, 1.27119e+00, -6.93987e-01 
9.05000e-01, 1.35610e+00, 1.26960e+00, -6.95570e-01 
9.07500e-01, 1.35496e+00, 1.26801e+00, -6.97150e-01 
9.10000e-01, 1.35381e+00, 1.26641e+00, -6.98728e-01 
9.12500e-01, 1.35266e+00, 1.26481e+00, -7.00303e-01 
9.15000e-01, 1.35151e+00, 1.26321e+00, -7.01875e-01 
9.17500e-01, 1.35036e+00, 1.26160e+00, -7.03444e-01 
9.20000e-01, 1.34921e+00, 1.25999e+00, -7.05011e-01 
9.22500e-01, 1.34805e+00, 1.25838e+00, -7.06575e-01 
9.25000e-01, 1.34689e+00, 1.25676e+00, -7.08136e-01 
9.27500e-01, 1.34572e+00, 1.25514e+00, -7.09694e-01 
9.30000e-01, 1.34456e+00, 1.25351e+00, -7.11250e-01 
9.32500e-01, 1.34339e+00, 1.25188e+00, -7.12803e-01 
9.35000e-01, 1.34222e+00, 1.25025e+00, -7.14353e-01 
9.37500e-01, 1.34104e+00, 1.24862e+00, -7.15901e-01 
