r(m), B_r(T), B_theta(T), B_z(T) 
0.00000, 4423.62073, 4423.62073, -0.00000 
0.00003, 4416.86176, 4403.51560, -485.46409 
0.00005, 4396.62587, 4343.40330, -966.50707 
0.00008, 4363.03659, 4243.89175, -1438.75238 
0.00010, 4316.29922, 4105.98745, -1897.91282 
0.00013, 4256.69832, 3931.08384, -2339.83316 
0.00015, 4184.59582, 3720.94678, -2760.53257 
0.00017, 4100.42931, 3477.69679, -3156.24406 
0.00020, 4004.70754, 3203.78561, -3523.45376 
0.00023, 3898.00557, 2901.96881, -3858.93432 
0.00025, 3780.96477, 2575.28163, -4159.77749 
0.00028, 3654.28213, 2227.00003, -4423.42279 
0.00030, 3518.70973, 1860.61171, -4647.68299 
0.00033, 3375.04613, 1479.77570, -4830.76673 
0.00035, 3224.13121, 1088.28556, -4971.29032 
0.00038, 3066.84201, 690.02951, -5068.29435 
0.00040, 2904.08243, 288.94806, -5121.25362 
0.00043, 2736.77959, -111.00491, -5130.07508 
0.00045, 2565.87643, -505.90593, -5095.10203 
0.00047, 2392.32354, -891.90223, -5017.10516 
0.00050, 2217.07413, -1265.25007, -4897.27415 
0.00053, 2041.07619, -1622.35557, -4737.20139 
0.00055, 1865.26520, -1959.81084, -4538.86515 
0.00057, 1690.56029, -2274.43030, -4304.59353 
0.00060, 1517.85380, -2563.27841, -4037.02273 
0.00063, 1348.00322, -2823.69666, -3739.01105 
0.00065, 1181.80668, -3053.30415, -3413.45280 
0.00068, 1019.94350, -3249.95199, -3062.84748 
0.00070, 862.79877, -3411.52033, -2688.25756 
0.00073, 709.96224, -3535.33095, -2286.81711 
0.00075, 558.89505, -3616.54792, -1845.86960 
0.00078, 401.49086, -3644.09205, -1329.50318 
0.00080, 215.55312, -3590.65134, -648.35506 
0.00082, -55.53543, -3389.08449, 406.45562 
0.00085, -549.80622, -2878.46625, 2304.53022 
0.00088, -1592.06792, -1684.15520, 6071.32099 
0.00090, -3923.79011, 1041.73245, 13891.97492 
0.00093, -9192.11745, 7168.42508, 30322.17602 
0.00095, -20965.90004, 20717.86445, 64670.11032 
0.00098, -46800.99969, 50150.84112, 135597.96259 
0.00100, -102353.17818, 112895.02346, 279859.00149 
0.00103, -219412.44403, 244146.43718, 568617.37255 
0.00105, -461316.06589, 513677.10562, 1137459.63247 
0.00108, -952014.96619, 1057398.19086, 2240769.35620 
0.00110, -1930009.97644, 2135700.84814, 4348858.65850 
0.00113, -3846913.22424, 4239681.24828, 8319143.16985 
0.00115, -7544958.08569, 8281808.79105, 15693934.84749 
0.00118, -14572302.64356, 15933539.89606, 29212142.04824 
0.00120, -27735765.61721, 30215431.02529, 53678207.03709 
0.00122, -52057690.39466, 56515903.87467, 97421037.75267 
0.00125, -96412669.74942, 104329377.86341, 174717127.71971 
0.00128, -176295301.66212, 190188407.24587, 309773232.64901 
0.00130, -318449370.09961, 342556677.51613, 543207440.02563 
0.00133, -568529536.77254, 609910020.44749, 942494813.41083 
0.00135, -1003654987.92809, 1073950429.64789, 1618647828.94794 
0.00138, -1752779858.75987, 1871007300.37909, 2752617390.19352 
0.00140, -3029442611.37692, 3226382171.87148, 4636722260.81273 
0.00143, -5183948382.10878, 5508979963.41947, 7739127877.83289 
0.00145, -8785800864.69694, 9317470483.92448, 12803399064.41823 
0.00147, -14752847426.95850, 15615070481.19635, 21001038476.35974 
0.00150, -24552001473.07134, 25938723215.41101, 34163472158.98270 
0.00153, -40508804841.61517, 42721260504.02471, 55132344097.07114 
0.00155, -66281328450.39873, 69783945264.68184, 88284834835.38611 
0.00158, -107580459979.47092, 113084161904.37170, 140316111199.11520 
0.00160, -173257054735.50150, 181842586505.56070, 221397370181.63672 
0.00163, -276931968335.18274, 290231313123.59058, 346878974237.98975 
0.00165, -439423953713.92920, 459885572878.75183, 539779984351.08118 
0.00168, -692343729500.98169, 723618038001.78076, 834405894517.26111 
0.00170, -1083381401772.59045, 1130877799893.37598, 1281576413045.37109 
0.00173, -1684040238569.76099, 1755727503054.11694, 1956136468313.08594 
0.00175, -2600883063208.64746, 2708433262404.25195, 2967692476669.92480 
0.00178, -3991795511335.18018, 4152210225495.08447, 4475876268896.93555 
0.00180, -6089382813446.99805, 6327293346733.10156, 6711937789686.25684 
0.00183, -9234441764792.26562, 9585346434976.85938, 10009138674887.70312 
0.00185, -13923621181472.44141, 14438419690440.36328, 14845333233540.37109 
0.00188, -20876925794909.39062, 21628240476519.25781, 21902348918281.41016 
0.00190, -31132908036714.68750, 32223856285991.99219, 32148394191637.25000 
0.00193, -46182207958862.91406, 47758522669698.00781, 46951976228701.42188 
0.00195, -68154153843768.79688, 70420856601684.78125, 68238633296551.41406 
0.00198, -100076190466319.01562, 103320432861045.57812, 98705735188144.87500 
0.00200, -146233197807735.71875, 150855424248772.96875, 142115617670565.90625 
0.00202, -212662937650947.31250, 219219231662567.25000, 203694069216889.59375 
0.00205, -307836483851940.43750, 317095890129208.56250, 290669955793821.37500 
0.00208, -443588787032921.50000, 456610610568950.62500, 413003133588017.43750 
0.00210, -636386955125485.12500, 654624612821335.87500, 584362814721185.50000 
0.00213, -909051417218545.87500, 934491472353657.37500, 823438018789258.00000 
0.00215, -1293083743687243.25000, 1328431372977976.75000, 1155685979572909.25000 
0.00218, -1831803654971849.00000, 1880729220766503.00000, 1615658362476700.00000 
0.00220, -2584560438232498.00000, 2652026193781966.00000, 2250083559987107.00000 
0.00222, -3632369129213256.50000, 3725060705856718.50000, 3121940629414542.50000 
0.00225, -5085427623687086.00000, 5212322023187962.00000, 4315824038271601.50000 
0.00228, -7093107650499573.00000, 7266218739374693.00000, 5944986134437942.00000 
0.00230, -9857193145874946.00000, 10092546886963014.00000, 8160557407143172.00000 
0.00233, -13649368620721954.00000, 13968275418052502.00000, 11163578996190276.00000 
0.00235, -18834243873786324.00000, 19264953222465180.00000, 15220657988465944.00000 
0.00237, -25899583067316996.00000, 26479429766905868.00000, 20684281326997980.00000 
0.00240, -35495882470315624.00000, 36274062297500936.00000, 28019103345097120.00000 
0.00243, -48488011589366880.00000, 49529161171005456.00000, 37835859795187848.00000 
0.00245, -66022460170093584.00000, 67411262472654592.00000, 50935019328717856.00000 
0.00248, -89614577403999568.00000, 91461669700022800.00000, 68362820949100344.00000 
0.00250, -121261531104850240.00000, 123711066311889696.00000, 91482986414101392.00000 
0.00253, -163588194513909824.00000, 166827492178868928.00000, 122068353777605904.00000 
0.00255, -220034919075010720.00000, 224306755231560032.00000, 162417548770094272.00000 
0.00258, -295098723126288192.00000, 300716941175144256.00000, 215503278906983904.00000 
0.00260, -394642480598870976.00000, 402011775100917568.00000, 285160456003068096.00000 
0.00263, -526290018944758336.00000, 535930948166149440.00000, 376323899572846080.00000 
0.00265, -699929652038058240.00000, 712510190493987840.00000, 495328568932496064.00000 
0.00268, -928355441075129856.00000, 944730694388530176.00000, 650287620922958592.00000 
0.00270, -1228080219390441984.00000, 1249342300950107648.00000, 851567113829169664.00000 
0.00272, -1620366007762173440.00000, 1647906543704036352.00000, 1112381551414021632.00000 
0.00275, -2132525047022392832.00000, 2168113347753105920.00000, 1449538900236741632.00000 
0.00278, -2799561661674059776.00000, 2845442273058167808.00000, 1884370501780211456.00000 
0.00280, -3666235665182361600.00000, 3725249862519927808.00000, 2443890160917102080.00000 
0.00283, -4789655883822919680.00000, 4865392699172792320.00000, 3162234830871733760.00000 
0.00285, -6242526746478576640.00000, 6339510320094993408.00000, 4082454001357027328.00000 
0.00287, -8117209323205156864.00000, 8241130851856969728.00000, 5258724440955788288.00000 
0.00290, -10530790158639230976.00000, 10688794587536039936.00000, 6759088919108601856.00000 
0.00293, -13631393209335857152.00000, 13832432848368705536.00000, 8668838175588301824.00000 
0.00295, -17606023851093096448.00000, 17861293800344360960.00000, 11094672274495186944.00000 
0.00298, -22690307231591702528.00000, 23013780516095467520.00000, 14169823204093693952.00000 
0.00300, -29180543587971477504.00000, 29589627784132268032.00000, 18060337896890523648.00000 
0.00303, -37448621229919051776.00000, 37964962707635249152.00000, 22972776482968244224.00000 
0.00305, -47960396436240195584.00000, 48610863665779220480.00000, 29163637707952726016.00000 
0.00308, -61298371359863201792.00000, 62116255282101362688.00000, 36950851266299691008.00000 
0.00310, -78189541877802074112.00000, 79216018813707845632.00000, 46727817672821186560.00000 
0.00313, -99539626557916561408.00000, 100825537909202829312.00000, 58980458538368180224.00000 
0.00315, -126474976260935892992.00000, 128082990720185319424.00000, 74307978059445288960.00000 
0.00318, -160393879162412892160.00000, 162401114914222604288.00000, 93448021142129885184.00000 
0.00320, -203029261617894162432.00000, 205530462414330822656.00000, 117307165730130903040.00000 
0.00323, -256525071337446670336.00000, 259636445842256199680.00000, 146997824227657646080.00000 
0.00325, -323529422444990300160.00000, 327393281103379169280.00000, 183882768596203208704.00000 
0.00328, -407307735729527586816.00000, 412098078939151990784.00000, 229628865417641492480.00000 
0.00330, -511880179697146134528.00000, 517809428015532736512.00000, 286271815564887916544.00000 
0.00333, -642188158712362958848.00000, 649515240030415486976.00000, 356293963027843252224.00000 
0.00335, -804296110120124022784.00000, 813336170682596982784.00000, 442717635199238012928.00000 
0.00337, -1005635030127519072256.00000, 1016771074576816668672.00000, 549217423965234921472.00000 
0.00340, -1255296648165266817024.00000, 1268993474938945142784.00000, 680254229780696924160.00000 
0.00343, -1564388037746405670912.00000, 1581208897906497814528.00000, 841235690285482901504.00000 
0.00345, -1946458402852710383616.00000, 1967084897703060832256.00000, 1038708277946297745408.00000 
0.00348, -2418011605550379302912.00000, 2443267397771007623168.00000, 1280585688280457281536.00000 
0.00350, -2999122031951510765568.00000, 3030001098754654470144.00000, 1576421057101863059456.00000 
0.00353, -3714173018358827450368.00000, 3751873251762277187584.00000, 1937731908967419084800.00000 
0.00355, -4592739362563557425152.00000, 4638702475058791579648.00000, 2378384579750391185408.00000 
0.00358, -5670645247533283016704.00000, 5726604127856622567424.00000, 2915051674956907675648.00000 
0.00360, -6991223479039683461120.00000, 7059258304248773869568.00000, 3567753928268459802624.00000 
0.00363, -8606823651023306883072.00000, 8689428303322394132480.00000, 4360502976692150075392.00000 
0.00365, -10580599479420424552448.00000, 10680760060793973637120.00000, 5322057629013049868288.00000 
0.00368, -12988645842537601302528.00000, 13109933396115251527680.00000, 6486823781309830135808.00000 
0.00370, -15922529471210956259328.00000, 16069209350774712172544.00000, 7895909344016538271744.00000 
0.00373, -19492296193558043426816.00000, 19669456878839516889088.00000, 9598370698402069479424.00000 
0.00375, -23830036000286198202368.00000, 24043740768429446004736.00000, 11652683715230851661824.00000 
0.00378, -29094110330989639106560.00000, 29351575460545365540864.00000, 14128463276781946798080.00000 
0.00380, -35474135991047891714048.00000, 35783940086831482142720.00000, 17108496155542055550976.00000 
0.00383, -43196889786269667688448.00000, 43569219345396136935424.00000, 20691116948754289131520.00000 
0.00385, -52533268863935330648064.00000, 52980205925317967085568.00000, 24992996164878462877696.00000 
0.00387, -63806503091577397706752.00000, 64342362112629145600000.00000, 30152403496961159725056.00000 
0.00390, -77401823478446221688832.00000, 78043545038706477891584.00000, 36333026288874807099392.00000 
0.00393, -93777807983320978423808.00000, 94545418947656201273344.00000, 43728440171346211635200.00000 
0.00395, -113479786236520741994496.00000, 114396936713521260920832.00000, 52567304600464710959104.00000 
0.00398, -137155495696774272647168.00000, 138250084799909287952384.00000, 63119445735011688382464.00000 
0.00400, -165573456821821498195968.00000, 166878361862817982709760.00000, 75702933327223634001920.00000 
0.00402, -199644588764664000675840.00000, 201198513610535091568640.00000, 90692321336599649452032.00000 
0.00405, -240447373446125688193024.00000, 242295834811163559854080.00000, 108528219551940718100480.00000 
0.00408, -289257350034109197451264.00000, 291453822606079189581824.00000, 129728431390652891136000.00000 
0.00410, -347581575740501037940736.00000, 350188821372116020494336.00000, 154900866375692947816448.00000 
0.00413, -417198873713434217676800.00000, 420290481886115863199744.00000, 184758527918609757372416.00000 
0.00415, -500206561068881780146176.00000, 503868733915593682452480.00000, 220136852792904226177024.00000 
0.00417, -599075164407316145504256.00000, 603408781253192284372992.00000, 262013775658851493740544.00000 
0.00420, -716711853466773293629440.00000, 721834858053965765935104.00000, 311533061710539074306048.00000 
0.00423, -856534465963709222092800.00000, 862584624542697727721472.00000, 370031033515117406846976.00000 
0.00425, -1022556875052602974273536.00000, 1029694958842009396183040.00000, 439067545441162563158016.00000 
0.00428, -1219489135680488871034880.00000, 1227902592141048902844416.00000, 520461903909976394432512.00000 
0.00430, -1452852523570486046621696.00000, 1462759705498654194270208.00000, 616333830446746364280832.00000 
0.00432, -1729112940869869201522688.00000, 1740767975084075392172032.00000, 729151077348440742559744.00000 
0.00435, -2055836782911383482138624.00000, 2069535169727608595152896.00000, 861784006294586857095168.00000 
0.00438, -2441868716481541836898304.00000, 2457953767590285816102912.00000, 1017568196647053609140224.00000 
0.00440, -2897539176035890749243392.00000, 2916409408728228320772096.00000, 1200376596278798289207296.00000 
0.00443, -3434903736463747572563968.00000, 3457021356137650247958528.00000, 1414702417445388589989888.00000 
0.00445, -4068017059363564185190400.00000, 4093917682304944453976064.00000, 1665753786259272055652352.00000 
0.00447, -4813252376030149863276544.00000, 4843556183373659135541248.00000, 1959562822329795350626304.00000 
0.00450, -5689665591809465865207808.00000, 5725090080049001427632128.00000, 2303109691639724729434112.00000 
0.00453, -6719418507857080323407872.00000, 6760793090040727504683008.00000, 2704465977224306274336768.00000 
0.00455, -7928259160942934279323648.00000, 7976541849583917486571520.00000, 3172956359092883997851648.00000 
0.00458, -9346083067576356918263808.00000, 9402379540836974705246208.00000, 3719346361546714986315776.00000 
0.00460, -11007567638186176521699328.00000, 11073152990891729672470528.00000, 4356053685283812355866624.00000 
0.00463, -12952908803282316784828416.00000, 13029252362143150517518336.00000, 5097390572118307332161536.00000 
0.00465, -15228655815189508682416128.00000, 15317449426792297384640512.00000, 5959842167532638577885184.00000 
0.00468, -17888680090456228683055104.00000, 17991870334359949008699392.00000, 6962379950084159264784384.00000 
0.00470, -20995271866616154024837120.00000, 21115096723709402550370304.00000, 8126819847776624367894528.00000 
0.00473, -24620404862297940779073536.00000, 24759435426940130665955328.00000, 9478231247919504741629952.00000 
0.00475, -28847171391329129075834880.00000, 29008359264436279087988736.00000, 11045402486345692371484672.00000 
0.00478, -33771434879776947605340160.00000, 33958166030791301723586560.00000, 12861364057292231747305472.00000 
0.00480, -39503702265754705058594816.00000, 39719858141709788159934464.00000, 14963988784165019493335040.00000 
0.00483, -46171268158979151308521472.00000, 46421295013424745196552192.00000, 17396672675101260591923200.00000 
0.00485, -53920667845640906147364864.00000, 54209655338013565426597888.00000, 20209101428547974024134656.00000 
0.00487, -62920434144883854807138304.00000, 63254204348457401614073856.00000, 23458124311686735158312960.00000 
0.00490, -73364296593329343730548736.00000, 73749504793071042066120704.00000, 27208743480184384482443264.00000 
0.00493, -85474761044613589435940864.00000, 85919009784092504337940480.00000, 31535223704488081402888192.00000 
0.00495, -99507205700000477752590336.00000, 100019173750503175719223296.00000, 36522368430934142578851840.00000 
0.00498, -115754565324595565915275264.00000, 116344153288514414590296064.00000, 42266937351579058942509056.00000 
0.00500, -134552573589659478965354496.00000, 135231068570064960811433984.00000, 48879272513200078310080512.00000 
0.00502, -156285776728465991339606016.00000, 157066037815839043744694272.00000, 56485098208937033238315008.00000 
0.00505, -181394342457685608897708032.00000, 182291010380119856860102656.00000, 65227601404769407757975552.00000 
0.00508, -210381719255546682065027072.00000, 211411452254681030828490752.00000, 75269730635599589704466432.00000 
0.00510, -243823451900194159526412288.00000, 245005191879576375630233600.00000, 86796812675308706276048896.00000 
0.00513, -282376926155140155169570816.00000, 283732197980404172992806912.00000, 100019496911221813149696000.00000 
0.00515, -326792655614875433487564800.00000, 328345904001538464151502848.00000, 115177047283855565497827328.00000 
0.00517, -377926813598129755793653760.00000, 379705782256278358783426560.00000, 132541081096314957514932224.00000 
0.00520, -436755604430538084320280576.00000, 438791761435283042976399360.00000, 152419739797684075890737152.00000 
0.00523, -504391175447777985505001472.00000, 506720192150666491090436096.00000, 175162415870868956609773568.00000 
0.00525, -582100041461819224126128128.00000, 584762329145546743360782336.00000, 201164966311836101954764800.00000 
0.00528, -671323366276218373957222400.00000, 674364678801683306455760896.00000, 230875740404655607544545280.00000 
0.00530, -773700210423812446910152704.00000, 777172320340345438563467264.00000, 264802104018376938949181440.00000 
0.00532, -891093269933565395288981504.00000, 895054725523162699728420864.00000, 303517976808442165140127744.00000 
0.00535, -1025618728302720972708904960.00000, 1030135701830677188487151616.00000, 347672134061720762073481216.00000 
0.00538, -1179678518431524689490739200.00000, 1184825756809710747894415360.00000, 397997521446082457223823360.00000 
0.00540, -1355997886368951140345708544.00000, 1361859773258990516281802752.00000, 455321880577607041672019968.00000 
0.00543, -1557666827709908585382150144.00000, 1564338573253055757026328576.00000, 520579149161852415281987584.00000 
0.00545, -1788187141820740980227178496.00000, 1795776110578137040911597568.00000, 594822827361578220647350272.00000 
0.00547, -2051524465632750079913754624.00000, 2060151662658274361450954752.00000, 679240436512500512397983744.00000 
0.00550, -2352167903679469053804544000.00000, 2361969632421708275575160832.00000, 775169884482882415498362880.00000 
0.00553, -2695195350491832504813617152.00000, 2706325062447386307814490112.00000, 884117817120453045392506880.00000 
0.00555, -3086348304718259972844027904.00000, 3098978665116584754060197888.00000, 1007779638012683605711519744.00000 
0.00558, -3532114751568894813116825600.00000, 3546439941010898672100048896.00000, 1148062388212816301237731328.00000 
0.00560, -4039822168085472847775924224.00000, 4056060449396623635711524864.00000, 1307110327044661108098990080.00000 
0.00563, -4617740970522610673798610944.00000, 4636137545100751913598582784.00000, 1487332340107735641624674304.00000 
0.00565, -5275201882365316281724305408.00000, 5296032072754783715957145600.00000, 1691434272778979267512893440.00000 
0.00568, -6022726273530078317581959168.00000, 6046299067085991429179179008.00000, 1922452614253852412923084800.00000 
0.00570, -6872169157066879274510712832.00000, 6898831139347803197140893696.00000, 2183794854840860189772480512.00000 
0.00573, -7836886547363708158873698304.00000, 7867026288754733748582350848.00000, 2479281432125939754509271040.00000 
0.00575, -8931911043827843847635861504.00000, 8965963961806603504104505344.00000, 2813193873729313807475408896.00000 
