r(m), B_r(T), B_theta(T), B_z(T) 
0.00000, 16.98105, 16.98105, -0.00000 
0.00250, 16.97722, 16.96981, -0.70919 
0.00500, 16.96575, 16.93614, -1.41743 
0.00750, 16.94665, 16.88007, -2.12379 
0.01000, 16.91993, 16.80168, -2.82732 
0.01250, 16.88561, 16.70110, -3.52709 
0.01500, 16.84374, 16.57847, -4.22218 
0.01750, 16.79433, 16.43397, -4.91166 
0.02000, 16.73745, 16.26782, -5.59461 
0.02250, 16.67314, 16.08026, -6.27014 
0.02500, 16.60146, 15.87157, -6.93734 
0.02750, 16.52247, 15.64205, -7.59535 
0.03000, 16.43624, 15.39204, -8.24328 
0.03250, 16.34286, 15.12192, -8.88029 
0.03500, 16.24239, 14.83207, -9.50554 
0.03750, 16.13495, 14.52293, -10.11821 
0.04000, 16.02061, 14.19496, -10.71750 
0.04250, 15.89949, 13.84862, -11.30263 
0.04500, 15.77168, 13.48444, -11.87284 
0.04750, 15.63732, 13.10295, -12.42739 
0.05000, 15.49650, 12.70471, -12.96557 
0.05250, 15.34936, 12.29030, -13.48668 
0.05500, 15.19603, 11.86033, -13.99007 
0.05750, 15.03665, 11.41544, -14.47508 
0.06000, 14.87135, 10.95628, -14.94111 
0.06250, 14.70028, 10.48351, -15.38757 
0.06500, 14.52360, 9.99783, -15.81391 
0.06750, 14.34145, 9.49995, -16.21960 
0.07000, 14.15399, 8.99061, -16.60413 
0.07250, 13.96140, 8.47053, -16.96706 
0.07500, 13.76383, 7.94049, -17.30793 
0.07750, 13.56146, 7.40125, -17.62636 
0.08000, 13.35447, 6.85360, -17.92197 
0.08250, 13.14303, 6.29834, -18.19442 
0.08500, 12.92733, 5.73627, -18.44341 
0.08750, 12.70755, 5.16821, -18.66868 
0.09000, 12.48388, 4.59499, -18.86999 
0.09250, 12.25651, 4.01743, -19.04715 
0.09500, 12.02563, 3.43637, -19.19998 
0.09750, 11.79145, 2.85266, -19.32836 
0.10000, 11.55416, 2.26712, -19.43220 
0.10250, 11.31395, 1.68060, -19.51144 
0.10500, 11.07103, 1.09396, -19.56605 
0.10750, 10.82561, 0.50802, -19.59606 
0.11000, 10.57788, -0.07636, -19.60150 
0.11250, 10.32806, -0.65836, -19.58247 
0.11500, 10.07634, -1.23715, -19.53907 
0.11750, 9.82294, -1.81189, -19.47147 
0.12000, 9.56805, -2.38178, -19.37985 
0.12250, 9.31190, -2.94601, -19.26444 
0.12500, 9.05468, -3.50377, -19.12548 
0.12750, 8.79660, -4.05429, -18.96327 
0.13000, 8.53786, -4.59678, -18.77813 
0.13250, 8.27867, -5.13049, -18.57042 
0.13500, 8.01924, -5.65468, -18.34051 
0.13750, 7.75976, -6.16861, -18.08883 
0.14000, 7.50043, -6.67158, -17.81582 
0.14250, 7.24146, -7.16289, -17.52196 
0.14500, 6.98304, -7.64186, -17.20775 
0.14750, 6.72537, -8.10784, -16.87373 
0.15000, 6.46863, -8.56020, -16.52045 
0.15250, 6.21302, -8.99834, -16.14851 
0.15500, 5.95872, -9.42165, -15.75850 
0.15750, 5.70591, -9.82959, -15.35107 
0.16000, 5.45478, -10.22160, -14.92688 
0.16250, 5.20549, -10.59719, -14.48659 
0.16500, 4.95823, -10.95587, -14.03092 
0.16750, 4.71314, -11.29718, -13.56058 
0.17000, 4.47041, -11.62068, -13.07631 
0.17250, 4.23018, -11.92599, -12.57887 
0.17500, 3.99260, -12.21274, -12.06902 
0.17750, 3.75783, -12.48057, -11.54755 
0.18000, 3.52600, -12.72919, -11.01526 
0.18250, 3.29724, -12.95832, -10.47296 
0.18500, 3.07169, -13.16772, -9.92147 
0.18750, 2.84945, -13.35717, -9.36161 
0.19000, 2.63066, -13.52649, -8.79424 
0.19250, 2.41540, -13.67555, -8.22017 
0.19500, 2.20379, -13.80423, -7.64028 
0.19750, 1.99589, -13.91246, -7.05539 
0.20000, 1.79180, -14.00019, -6.46637 
0.20250, 1.59159, -14.06742, -5.87406 
0.20500, 1.39531, -14.11418, -5.27932 
0.20750, 1.20301, -14.14055, -4.68298 
0.21000, 1.01472, -14.14661, -4.08588 
0.21250, 0.83048, -14.13252, -3.48886 
0.21500, 0.65029, -14.09845, -2.89274 
0.21750, 0.47415, -14.04461, -2.29833 
0.22000, 0.30205, -13.97125, -1.70642 
0.22250, 0.13396, -13.87867, -1.11781 
0.22500, -0.03018, -13.76719, -0.53325 
0.22750, -0.19043, -13.63718, 0.04650 
0.23000, -0.34687, -13.48903, 0.62072 
0.23250, -0.49960, -13.32321, 1.18870 
0.23500, -0.64875, -13.14018, 1.74976 
0.23750, -0.79446, -12.94046, 2.30325 
0.24000, -0.93690, -12.72463, 2.84856 
0.24250, -1.07627, -12.49327, 3.38507 
0.24500, -1.21278, -12.24703, 3.91225 
0.24750, -1.34668, -11.98660, 4.42957 
0.25000, -1.47826, -11.71270, 4.93654 
0.25250, -1.60782, -11.42609, 5.43274 
0.25500, -1.73570, -11.12758, 5.91776 
0.25750, -1.86230, -10.81802, 6.39126 
0.26000, -1.98803, -10.49831, 6.85295 
0.26250, -2.11336, -10.16939, 7.30258 
0.26500, -2.23879, -9.83223, 7.73997 
0.26750, -2.36488, -9.48788, 8.16499 
0.27000, -2.49223, -9.13741, 8.57758 
0.27250, -2.62152, -8.78194, 8.97776 
0.27500, -2.75345, -8.42265, 9.36560 
0.27750, -2.88881, -8.06078, 9.74125 
0.28000, -3.02845, -7.69758, 10.10496 
0.28250, -3.17328, -7.33441, 10.45703 
0.28500, -3.32431, -6.97263, 10.79790 
0.28750, -3.48260, -6.61371, 11.12804 
0.29000, -3.64931, -6.25915, 11.44808 
0.29250, -3.82571, -5.91050, 11.75872 
0.29500, -4.01314, -5.56940, 12.06078 
0.29750, -4.21305, -5.23754, 12.35521 
0.30000, -4.42702, -4.91668, 12.64306 
0.30250, -4.65673, -4.60866, 12.92553 
0.30500, -4.90398, -4.31539, 13.20396 
0.30750, -5.17074, -4.03885, 13.47983 
0.31000, -5.45908, -3.78110, 13.75477 
0.31250, -5.77125, -3.54431, 14.03058 
0.31500, -6.10966, -3.33069, 14.30924 
0.31750, -6.47689, -3.14259, 14.59290 
0.32000, -6.87568, -2.98244, 14.88391 
0.32250, -7.30902, -2.85275, 15.18482 
0.32500, -7.78004, -2.75616, 15.49841 
0.32750, -8.29216, -2.69542, 15.82767 
0.33000, -8.84897, -2.67338, 16.17585 
0.33250, -9.45436, -2.69302, 16.54643 
0.33500, -10.11244, -2.75746, 16.94319 
0.33750, -10.82765, -2.86993, 17.37017 
0.34000, -11.60467, -3.03381, 17.83172 
0.34250, -12.44855, -3.25263, 18.33252 
0.34500, -13.36462, -3.53007, 18.87758 
0.34750, -14.35861, -3.86996, 19.47225 
0.35000, -15.43659, -4.27633, 20.12229 
0.35250, -16.60505, -4.75335, 20.83383 
0.35500, -17.87088, -5.30539, 21.61343 
0.35750, -19.24142, -5.93701, 22.46809 
0.36000, -20.72449, -6.65298, 23.40530 
0.36250, -22.32837, -7.45827, 24.43302 
0.36500, -24.06191, -8.35809, 25.55975 
0.36750, -25.93448, -9.35785, 26.79453 
0.37000, -27.95603, -10.46323, 28.14701 
0.37250, -30.13715, -11.68014, 29.62744 
0.37500, -32.48907, -13.01477, 31.24671 
0.37750, -35.02368, -14.47358, 33.01643 
0.38000, -37.75363, -16.06331, 34.94890 
0.38250, -40.69231, -17.79100, 37.05721 
0.38500, -43.85391, -19.66400, 39.35526 
0.38750, -47.25347, -21.68998, 41.85778 
0.39000, -50.90693, -23.87696, 44.58042 
0.39250, -54.83113, -26.23330, 47.53977 
0.39500, -59.04395, -28.76772, 50.75340 
0.39750, -63.56425, -31.48933, 54.23996 
0.40000, -68.41202, -34.40761, 58.01918 
0.40250, -73.60838, -37.53247, 62.11198 
0.40500, -79.17565, -40.87424, 66.54048 
0.40750, -85.13741, -44.44366, 71.32812 
0.41000, -91.51860, -48.25196, 76.49967 
0.41250, -98.34551, -52.31082, 82.08134 
0.41500, -105.64592, -56.63240, 88.10085 
0.41750, -113.44915, -61.22938, 94.58750 
0.42000, -121.78612, -66.11494, 101.57223 
0.42250, -130.68945, -71.30281, 109.08774 
0.42500, -140.19351, -76.80726, 117.16856 
0.42750, -150.33456, -82.64314, 125.85115 
0.43000, -161.15078, -88.82587, 135.17397 
0.43250, -172.68241, -95.37151, 145.17761 
0.43500, -184.97180, -102.29670, 155.90489 
0.43750, -198.06356, -109.61875, 167.40096 
0.44000, -212.00463, -117.35562, 179.71341 
0.44250, -226.84439, -125.52595, 192.89240 
0.44500, -242.63481, -134.14906, 206.99077 
0.44750, -259.43052, -143.24499, 222.06419 
0.45000, -277.28894, -152.83453, 238.17127 
0.45250, -296.27044, -162.93918, 255.37370 
0.45500, -316.43846, -173.58123, 273.73643 
0.45750, -337.85961, -184.78375, 293.32777 
0.46000, -360.60386, -196.57061, 314.21958 
0.46250, -384.74467, -208.96649, 336.48743 
0.46500, -410.35914, -221.99690, 360.21076 
0.46750, -437.52817, -235.68821, 385.47305 
0.47000, -466.33664, -250.06765, 412.36203 
0.47250, -496.87356, -265.16333, 440.96985 
0.47500, -529.23228, -281.00426, 471.39328 
0.47750, -563.51063, -297.62034, 503.73390 
0.48000, -599.81116, -315.04241, 538.09837 
0.48250, -638.24130, -333.30224, 574.59856 
0.48500, -678.91361, -352.43254, 613.35187 
0.48750, -721.94593, -372.46699, 654.48141 
0.49000, -767.46167, -393.44023, 698.11627 
0.49250, -815.59001, -415.38788, 744.39176 
0.49500, -866.46613, -438.34652, 793.44970 
0.49750, -920.23146, -462.35375, 845.43867 
0.50000, -977.03396, -487.44816, 900.51431 
0.50250, -1037.02835, -513.66931, 958.83961 
0.50500, -1100.37642, -541.05781, 1020.58520 
0.50750, -1167.24727, -569.65523, 1085.92970 
0.51000, -1237.81764, -599.50415, 1155.06002 
0.51250, -1312.27222, -630.64815, 1228.17171 
0.51500, -1390.80391, -663.13182, 1305.46930 
0.51750, -1473.61422, -697.00070, 1387.16667 
0.52000, -1560.91354, -732.30133, 1473.48744 
0.52250, -1652.92152, -769.08121, 1564.66532 
0.52500, -1749.86746, -807.38877, 1660.94454 
0.52750, -1851.99059, -847.27341, 1762.58027 
0.53000, -1959.54056, -888.78541, 1869.83902 
0.53250, -2072.77777, -931.97596, 1982.99911 
0.53500, -2191.97379, -976.89710, 2102.35110 
0.53750, -2317.41182, -1023.60171, 2228.19828 
0.54000, -2449.38708, -1072.14350, 2360.85717 
0.54250, -2588.20727, -1122.57690, 2500.65798 
0.54500, -2734.19310, -1174.95711, 2647.94519 
0.54750, -2887.67866, -1229.34000, 2803.07802 
0.55000, -3049.01202, -1285.78208, 2966.43103 
0.55250, -3218.55570, -1344.34043, 3138.39469 
0.55500, -3396.68718, -1405.07269, 3319.37593 
0.55750, -3583.79950, -1468.03694, 3509.79878 
0.56000, -3780.30177, -1533.29168, 3710.10501 
0.56250, -3986.61978, -1600.89572, 3920.75472 
0.56500, -4203.19662, -1670.90815, 4142.22707 
0.56750, -4430.49325, -1743.38821, 4375.02092 
0.57000, -4668.98917, -1818.39524, 4619.65554 
0.57250, -4919.18309, -1895.98855, 4876.67138 
0.57500, -5181.59355, -1976.22735, 5146.63077 
0.57750, -5456.75971, -2059.17063, 5430.11872 
0.58000, -5745.24199, -2144.87703, 5727.74370 
0.58250, -6047.62285, -2233.40477, 6040.13847 
0.58500, -6364.50755, -2324.81145, 6367.96094 
0.58750, -6696.52495, -2419.15396, 6711.89499 
0.59000, -7044.32829, -2516.48831, 7072.65141 
0.59250, -7408.59605, -2616.86952, 7450.96880 
0.59500, -7790.03283, -2720.35140, 7847.61453 
0.59750, -8189.37017, -2826.98642, 8263.38567 
0.60000, -8607.36755, -2936.82549, 8699.11006 
0.60250, -9044.81326, -3049.91783, 9155.64726 
0.60500, -9502.52541, -3166.31070, 9633.88970 
0.60750, -9981.35290, -3286.04923, 10134.76369 
0.61000, -10482.17646, -3409.17621, 10659.23056 
0.61250, -11005.90970, -3535.73181, 11208.28784 
0.61500, -11553.50019, -3665.75337, 11782.97041 
0.61750, -12125.93056, -3799.27512, 12384.35173 
0.62000, -12724.21971, -3936.32794, 13013.54507 
0.62250, -13349.42392, -4076.93905, 13671.70483 
0.62500, -14002.63808, -4221.13171, 14360.02780 
0.62750, -14684.99697, -4368.92495, 15079.75459 
0.63000, -15397.67651, -4520.33319, 15832.17092 
0.63250, -16141.89509, -4675.36594, 16618.60914 
0.63500, -16918.91494, -4834.02743, 17440.44964 
0.63750, -17730.04349, -4996.31623, 18299.12238 
0.64000, -18576.63484, -5162.22489, 19196.10840 
0.64250, -19460.09121, -5331.73951, 20132.94144 
0.64500, -20381.86443, -5504.83931, 21111.20955 
0.64750, -21343.45755, -5681.49624, 22132.55675 
0.65000, -22346.42638, -5861.67447, 23198.68475 
0.65250, -23392.38118, -6045.32992, 24311.35471 
0.65500, -24482.98829, -6232.40979, 25472.38901 
0.65750, -25619.97189, -6422.85201, 26683.67315 
0.66000, -26805.11577, -6616.58474, 27947.15758 
0.66250, -28040.26515, -6813.52575, 29264.85969 
0.66500, -29327.32856, -7013.58189, 30638.86578 
0.66750, -30668.27973, -7216.64847, 32071.33308 
0.67000, -32065.15961, -7422.60862, 33564.49189 
0.67250, -33520.07834, -7631.33262, 35120.64767 
0.67500, -35035.21735, -7842.67727, 36742.18329 
0.67750, -36612.83152, -8056.48515, 38431.56120 
0.68000, -38255.25131, -8272.58386, 40191.32584 
0.68250, -39964.88502, -8490.78534, 42024.10592 
0.68500, -41744.22113, -8710.88500, 43932.61685 
0.68750, -43595.83060, -8932.66095, 45919.66327 
0.69000, -45522.36932, -9155.87314, 47988.14151 
0.69250, -47526.58060, -9380.26248, 50141.04227 
0.69500, -49611.29770, -9605.54993, 52381.45322 
0.69750, -51779.44643, -9831.43555, 54712.56174 
0.70000, -54034.04784, -10057.59757, 57137.65771 
0.70250, -56378.22096, -10283.69130, 59660.13640 
0.70500, -58815.18562, -10509.34817, 62283.50132 
0.70750, -61348.26531, -10734.17458, 65011.36727 
0.71000, -63980.89014, -10957.75082, 67847.46338 
0.71250, -66716.59989, -11179.62991, 70795.63624 
0.71500, -69559.04707, -11399.33639, 73859.85310 
0.71750, -72512.00013, -11616.36508, 77044.20517 
0.72000, -75579.34671, -11830.17983, 80352.91094 
0.72250, -78765.09696, -12040.21218, 83790.31963 
0.72500, -82073.38697, -12245.85998, 87360.91469 
0.72750, -85508.48228, -12446.48602, 91069.31740 
0.73000, -89074.78144, -12641.41654, 94920.29053 
0.73250, -92776.81968, -12829.93975, 98918.74206 
0.73500, -96619.27272, -13011.30428, 103069.72909 
0.73750, -100606.96054, -13184.71755, 107378.46169 
0.74000, -104744.85139, -13349.34416, 111850.30692 
0.74250, -109038.06578, -13504.30417, 116490.79296 
0.74500, -113491.88065, -13648.67134, 121305.61328 
0.74750, -118111.73356, -13781.47131, 126300.63089 
0.75000, -122903.22704, -13901.67977, 131481.88276 
0.75250, -127872.13301, -14008.22048, 136855.58424 
0.75500, -133024.39734, -14099.96336, 142428.13368 
0.75750, -138366.14444, -14175.72236, 148206.11703 
0.76000, -143903.68206, -14234.25343, 154196.31267 
0.76250, -149643.50611, -14274.25231, 160405.69621 
0.76500, -155592.30564, -14294.35229, 166841.44552 
0.76750, -161756.96794, -14293.12196, 173510.94577 
0.77000, -168144.58371, -14269.06278, 180421.79462 
0.77250, -174762.45241, -14220.60668, 187581.80752 
0.77500, -181618.08769, -14146.11353, 194999.02312 
0.77750, -188719.22293, -14043.86858, 202681.70878 
0.78000, -196073.81697, -13912.07980, 210638.36621 
0.78250, -203690.05990, -13748.87511, 218877.73720 
0.78500, -211576.37904, -13552.29963, 227408.80954 
0.78750, -219741.44499, -13320.31272, 236240.82297 
0.79000, -228194.17785, -13050.78507, 245383.27529 
0.79250, -236943.75362, -12741.49561, 254845.92865 
0.79500, -245999.61065, -12390.12835, 264638.81589 
0.79750, -255371.45631, -11994.26921, 274772.24702 
0.80000, -265069.27379, -11551.40262, 285256.81589 
0.80250, -275103.32899, -11058.90819, 296103.40693 
0.80500, -285484.17768, -10514.05713, 307323.20206 
0.80750, -296222.67269, -9914.00871, 318927.68774 
0.81000, -307329.97135, -9255.80651, 330928.66216 
0.81250, -318817.54304, -8536.37468, 343338.24251 
0.81500, -330697.17692, -7752.51398, 356168.87252 
0.81750, -342980.98983, -6900.89780, 369433.33006 
0.82000, -355681.43435, -5978.06807, 383144.73488 
0.82250, -368811.30708, -4980.43099, 397316.55658 
0.82500, -382383.75698, -3904.25273, 411962.62264 
0.82750, -396412.29404, -2745.65501, 427097.12669 
0.83000, -410910.79801, -1500.61045, 442734.63692 
0.83250, -425893.52741, -164.93798, 458890.10458 
0.83500, -441375.12864, 1265.70200, 475578.87278 
0.83750, -457370.64535, 2795.81257, 492816.68534 
0.84000, -473895.52799, 4430.06530, 510619.69584 
0.84250, -490965.64353, 6173.30545, 529004.47693 
0.84500, -508597.28546, 8030.55730, 547988.02966 
0.84750, -526807.18388, 10007.02958, 567587.79313 
0.85000, -545612.51591, 12108.12106, 587821.65425 
0.85250, -565030.91626, 14339.42627, 608707.95770 
0.85500, -585080.48802, 16706.74138, 630265.51609 
0.85750, -605779.81370, 19216.07022, 652513.62029 
0.86000, -627147.96648, 21873.63042, 675472.04995 
0.86250, -649204.52167, 24685.85977, 699161.08426 
0.86500, -671969.56842, 27659.42263, 723601.51287 
0.86750, -695463.72169, 30801.21663, 748814.64700 
0.87000, -719708.13446, 34118.37938, 774822.33082 
0.87250, -744724.51013, 37618.29551, 801646.95295 
0.87500, -770535.11523, 41308.60375, 829311.45825 
0.87750, -797162.79237, 45197.20421, 857839.35979 
0.88000, -824630.97345, 49292.26587, 887254.75104 
0.88250, -852963.69313, 53602.23426, 917582.31827 
0.88500, -882185.60256, 58135.83923, 948847.35322 
0.88750, -912321.98340, 62902.10300, 981075.76594 
0.89000, -943398.76212, 67910.34834, 1014294.09791 
0.89250, -975442.52455, 73170.20701, 1048529.53535 
0.89500, -1008480.53079, 78691.62831, 1083809.92282 
0.89750, -1042540.73029, 84484.88788, 1120163.77703 
0.90000, -1077651.77737, 90560.59671, 1157620.30089 
0.90250, -1113843.04694, 96929.71034, 1196209.39783 
0.90500, -1151144.65057, 103603.53827, 1235961.68637 
0.90750, -1189587.45285, 110593.75359, 1276908.51491 
0.91000, -1229203.08811, 117912.40283, 1319081.97688 
0.91250, -1270023.97738, 125571.91605, 1362514.92600 
0.91500, -1312083.34580, 133585.11712, 1407240.99195 
0.91750, -1355415.24025, 141965.23429, 1453294.59626 
0.92000, -1400054.54736, 150725.91092, 1500710.96843 
0.92250, -1446037.01192, 159881.21652, 1549526.16240 
0.92500, -1493399.25552, 169445.65800, 1599777.07329 
0.92750, -1542178.79568, 179434.19119, 1651501.45436 
0.93000, -1592414.06522, 189862.23260, 1704737.93439 
0.93250, -1644144.43210, 200745.67144, 1759526.03519 
0.93500, -1697410.21958, 212100.88190, 1815906.18961 
0.93750, -1752252.72675, 223944.73573, 1873919.75963 
0.94000, -1808714.24947, 236294.61504, 1933609.05496 
0.94250, -1866838.10172, 249168.42545, 1995017.35184 
0.94500, -1926668.63729, 262584.60945, 2058188.91218 
0.94750, -1988251.27194, 276562.16008, 2123169.00302 
0.95000, -2051632.50592, 291120.63496, 2190003.91634 
0.95250, -2116859.94694, 306280.17049, 2258740.98917 
0.95500, -2183982.33355, 322061.49649, 2329428.62405 
0.95750, -2253049.55895, 338485.95106, 2402116.30985 
0.96000, -2324112.69524, 355575.49582, 2476854.64286 
0.96250, -2397224.01813, 373352.73140, 2553695.34835 
0.96500, -2472437.03207, 391840.91331, 2632691.30237 
0.96750, -2549806.49586, 411063.96814, 2713896.55396 
0.97000, -2629388.44875, 431046.51007, 2797366.34774 
0.97250, -2711240.23693, 451813.85777, 2883157.14682 
0.97500, -2795420.54061, 473392.05158, 2971326.65612 
0.97750, -2881989.40151, 495807.87110, 3061933.84609 
0.98000, -2971008.25086, 519088.85317, 3155038.97672 
0.98250, -3062539.93794, 543263.31011, 3250703.62206 
0.98500, -3156648.75907, 568360.34847, 3348990.69504 
0.98750, -3253400.48717, 594409.88804, 3449964.47275 
0.99000, -3352862.40186, 621442.68135, 3553690.62206 
0.99250, -3455103.31998, 649490.33348, 3660236.22575 
0.99500, -3560193.62682, 678585.32234, 3769669.80893 
0.99750, -3668205.30778, 708761.01929, 3882061.36598 
1.00000, -3779211.98062, 740051.71026, 3997482.38788 
1.00250, -3893288.92829, 772492.61720, 4116005.88995 
1.00500, -4010513.13235, 806119.92001, 4237706.44009 
1.00750, -4130963.30692, 840970.77893, 4362660.18736 
1.01000, -4254719.93328, 877083.35729, 4490944.89115 
1.01250, -4381865.29507, 914496.84482, 4622639.95065 
1.01500, -4512483.51402, 953251.48129, 4757826.43492 
1.01750, -4646660.58645, 993388.58076, 4896587.11332 
1.02000, -4784484.42024, 1034950.55615, 5039006.48646 
1.02250, -4926044.87254, 1077980.94445, 5185170.81765 
1.02500, -5071433.78813, 1122524.43228, 5335168.16477 
1.02750, -5220745.03835, 1168626.88199, 5489088.41272 
1.03000, -5374074.56082, 1216335.35836, 5647023.30625 
1.03250, -5531520.39971, 1265698.15564, 5809066.48341 
1.03500, -5693182.74684, 1316764.82527, 5975313.50943 
1.03750, -5859163.98332, 1369586.20399, 6145861.91117 
1.04000, -6029568.72205, 1424214.44265, 6320811.21204 
1.04250, -6204503.85081, 1480703.03541, 6500262.96747 
1.04500, -6384078.57617, 1539106.84955, 6684320.80096 
1.04750, -6568404.46808, 1599482.15594, 6873090.44060 
1.05000, -6757595.50527, 1661886.65988, 7066679.75618 
1.05250, -6951768.12131, 1726379.53275, 7265198.79685 
1.05500, -7151041.25158, 1793021.44406, 7468759.82932 
1.05750, -7355536.38088, 1861874.59423, 7677477.37671 
1.06000, -7565377.59197, 1933002.74791, 7891468.25783 
1.06250, -7780691.61476, 2006471.26792, 8110851.62720 
1.06500, -8001607.87649, 2082347.14988, 8335749.01555 
1.06750, -8228258.55259, 2160699.05744, 8566284.37099 
1.07000, -8460778.61846, 2241597.35809, 8802584.10073 
1.07250, -8699305.90207, 2325114.15977, 9044777.11345 
1.07500, -8943981.13745, 2411323.34804, 9292994.86226 
1.07750, -9194948.01904, 2500300.62393, 9547371.38833 
1.08000, -9452353.25692, 2592123.54260, 9808043.36511 
1.08250, -9716346.63291, 2686871.55250, 10075150.14322 
