r(m), E_r(T), E_theta(T), E_z(T) 
0.00000e+00, 2.61082e+08, 0.00000e+00, 0.00000e+00 
2.50000e-03, 2.61074e+08, 0.00000e+00, 3.44922e-15 
5.00000e-03, 2.61049e+08, 0.00000e+00, 6.89817e-15 
7.50000e-03, 2.61008e+08, 0.00000e+00, 1.03466e-14 
1.00000e-02, 2.60950e+08, 0.00000e+00, 1.37941e-14 
1.25000e-02, 2.60875e+08, 0.00000e+00, 1.72405e-14 
1.50000e-02, 2.60785e+08, 0.00000e+00, 2.06856e-14 
1.75000e-02, 2.60677e+08, 0.00000e+00, 2.41289e-14 
2.00000e-02, 2.60553e+08, 0.00000e+00, 2.75704e-14 
2.25000e-02, 2.60413e+08, 0.00000e+00, 3.10095e-14 
2.50000e-02, 2.60256e+08, 0.00000e+00, 3.44462e-14 
2.75000e-02, 2.60083e+08, 0.00000e+00, 3.78801e-14 
3.00000e-02, 2.59893e+08, 0.00000e+00, 4.13109e-14 
3.25000e-02, 2.59686e+08, 0.00000e+00, 4.47384e-14 
3.50000e-02, 2.59464e+08, 0.00000e+00, 4.81622e-14 
3.75000e-02, 2.59225e+08, 0.00000e+00, 5.15822e-14 
4.00000e-02, 2.58969e+08, 0.00000e+00, 5.49980e-14 
4.25000e-02, 2.58698e+08, 0.00000e+00, 5.84093e-14 
4.50000e-02, 2.58409e+08, 0.00000e+00, 6.18159e-14 
4.75000e-02, 2.58105e+08, 0.00000e+00, 6.52175e-14 
5.00000e-02, 2.57784e+08, 0.00000e+00, 6.86138e-14 
5.25000e-02, 2.57447e+08, 0.00000e+00, 7.20046e-14 
5.50000e-02, 2.57094e+08, 0.00000e+00, 7.53895e-14 
5.75000e-02, 2.56725e+08, 0.00000e+00, 7.87684e-14 
6.00000e-02, 2.56339e+08, 0.00000e+00, 8.21409e-14 
6.25000e-02, 2.55937e+08, 0.00000e+00, 8.55067e-14 
6.50000e-02, 2.55520e+08, 0.00000e+00, 8.88657e-14 
6.75000e-02, 2.55086e+08, 0.00000e+00, 9.22174e-14 
7.00000e-02, 2.54636e+08, 0.00000e+00, 9.55617e-14 
7.25000e-02, 2.54170e+08, 0.00000e+00, 9.88982e-14 
7.50000e-02, 2.53688e+08, 0.00000e+00, 1.02227e-13 
7.75000e-02, 2.53191e+08, 0.00000e+00, 1.05547e-13 
8.00000e-02, 2.52677e+08, 0.00000e+00, 1.08859e-13 
8.25000e-02, 2.52148e+08, 0.00000e+00, 1.12162e-13 
8.50000e-02, 2.51602e+08, 0.00000e+00, 1.15456e-13 
8.75000e-02, 2.51041e+08, 0.00000e+00, 1.18740e-13 
9.00000e-02, 2.50465e+08, 0.00000e+00, 1.22015e-13 
9.25000e-02, 2.49873e+08, 0.00000e+00, 1.25280e-13 
9.50000e-02, 2.49265e+08, 0.00000e+00, 1.28535e-13 
9.75000e-02, 2.48641e+08, 0.00000e+00, 1.31780e-13 
1.00000e-01, 2.48003e+08, 0.00000e+00, 1.35014e-13 
1.02500e-01, 2.47348e+08, 0.00000e+00, 1.38237e-13 
1.05000e-01, 2.46679e+08, 0.00000e+00, 1.41449e-13 
1.07500e-01, 2.45994e+08, 0.00000e+00, 1.44650e-13 
1.10000e-01, 2.45294e+08, 0.00000e+00, 1.47838e-13 
1.12500e-01, 2.44578e+08, 0.00000e+00, 1.51015e-13 
1.15000e-01, 2.43848e+08, 0.00000e+00, 1.54180e-13 
1.17500e-01, 2.43102e+08, 0.00000e+00, 1.57332e-13 
1.20000e-01, 2.42341e+08, 0.00000e+00, 1.60472e-13 
1.22500e-01, 2.41566e+08, 0.00000e+00, 1.63598e-13 
1.25000e-01, 2.40775e+08, 0.00000e+00, 1.66712e-13 
1.27500e-01, 2.39970e+08, 0.00000e+00, 1.69812e-13 
1.30000e-01, 2.39150e+08, 0.00000e+00, 1.72898e-13 
1.32500e-01, 2.38315e+08, 0.00000e+00, 1.75970e-13 
1.35000e-01, 2.37466e+08, 0.00000e+00, 1.79029e-13 
1.37500e-01, 2.36602e+08, 0.00000e+00, 1.82072e-13 
1.40000e-01, 2.35724e+08, 0.00000e+00, 1.85102e-13 
1.42500e-01, 2.34831e+08, 0.00000e+00, 1.88116e-13 
1.45000e-01, 2.33924e+08, 0.00000e+00, 1.91115e-13 
1.47500e-01, 2.33003e+08, 0.00000e+00, 1.94098e-13 
1.50000e-01, 2.32068e+08, 0.00000e+00, 1.97066e-13 
1.52500e-01, 2.31118e+08, 0.00000e+00, 2.00018e-13 
1.55000e-01, 2.30155e+08, 0.00000e+00, 2.02955e-13 
1.57500e-01, 2.29178e+08, 0.00000e+00, 2.05874e-13 
1.60000e-01, 2.28186e+08, 0.00000e+00, 2.08777e-13 
1.62500e-01, 2.27181e+08, 0.00000e+00, 2.11664e-13 
1.65000e-01, 2.26163e+08, 0.00000e+00, 2.14533e-13 
1.67500e-01, 2.25131e+08, 0.00000e+00, 2.17385e-13 
1.70000e-01, 2.24085e+08, 0.00000e+00, 2.20220e-13 
1.72500e-01, 2.23026e+08, 0.00000e+00, 2.23037e-13 
1.75000e-01, 2.21954e+08, 0.00000e+00, 2.25836e-13 
1.77500e-01, 2.20868e+08, 0.00000e+00, 2.28617e-13 
1.80000e-01, 2.19769e+08, 0.00000e+00, 2.31379e-13 
1.82500e-01, 2.18658e+08, 0.00000e+00, 2.34123e-13 
1.85000e-01, 2.17533e+08, 0.00000e+00, 2.36848e-13 
1.87500e-01, 2.16395e+08, 0.00000e+00, 2.39554e-13 
1.90000e-01, 2.15245e+08, 0.00000e+00, 2.42241e-13 
1.92500e-01, 2.14082e+08, 0.00000e+00, 2.44909e-13 
1.95000e-01, 2.12906e+08, 0.00000e+00, 2.47556e-13 
1.97500e-01, 2.11718e+08, 0.00000e+00, 2.50184e-13 
2.00000e-01, 2.10518e+08, 0.00000e+00, 2.52792e-13 
2.02500e-01, 2.09306e+08, 0.00000e+00, 2.55380e-13 
2.05000e-01, 2.08081e+08, 0.00000e+00, 2.57947e-13 
2.07500e-01, 2.06844e+08, 0.00000e+00, 2.60494e-13 
2.10000e-01, 2.05595e+08, 0.00000e+00, 2.63019e-13 
2.12500e-01, 2.04335e+08, 0.00000e+00, 2.65524e-13 
2.15000e-01, 2.03062e+08, 0.00000e+00, 2.68007e-13 
2.17500e-01, 2.01778e+08, 0.00000e+00, 2.70469e-13 
2.20000e-01, 2.00483e+08, 0.00000e+00, 2.72910e-13 
2.22500e-01, 1.99176e+08, 0.00000e+00, 2.75328e-13 
2.25000e-01, 1.97858e+08, 0.00000e+00, 2.77725e-13 
2.27500e-01, 1.96528e+08, 0.00000e+00, 2.80099e-13 
2.30000e-01, 1.95188e+08, 0.00000e+00, 2.82451e-13 
2.32500e-01, 1.93836e+08, 0.00000e+00, 2.84780e-13 
2.35000e-01, 1.92474e+08, 0.00000e+00, 2.87087e-13 
2.37500e-01, 1.91101e+08, 0.00000e+00, 2.89370e-13 
2.40000e-01, 1.89717e+08, 0.00000e+00, 2.91631e-13 
2.42500e-01, 1.88323e+08, 0.00000e+00, 2.93868e-13 
2.45000e-01, 1.86919e+08, 0.00000e+00, 2.96082e-13 
2.47500e-01, 1.85504e+08, 0.00000e+00, 2.98273e-13 
2.50000e-01, 1.84079e+08, 0.00000e+00, 3.00439e-13 
2.52500e-01, 1.82644e+08, 0.00000e+00, 3.02582e-13 
2.55000e-01, 1.81199e+08, 0.00000e+00, 3.04701e-13 
2.57500e-01, 1.79744e+08, 0.00000e+00, 3.06795e-13 
2.60000e-01, 1.78280e+08, 0.00000e+00, 3.08865e-13 
2.62500e-01, 1.76806e+08, 0.00000e+00, 3.10910e-13 
2.65000e-01, 1.75322e+08, 0.00000e+00, 3.12931e-13 
2.67500e-01, 1.73830e+08, 0.00000e+00, 3.14927e-13 
2.70000e-01, 1.72328e+08, 0.00000e+00, 3.16897e-13 
2.72500e-01, 1.70817e+08, 0.00000e+00, 3.18843e-13 
2.75000e-01, 1.69297e+08, 0.00000e+00, 3.20763e-13 
2.77500e-01, 1.67769e+08, 0.00000e+00, 3.22658e-13 
2.80000e-01, 1.66231e+08, 0.00000e+00, 3.24527e-13 
2.82500e-01, 1.64685e+08, 0.00000e+00, 3.26371e-13 
2.85000e-01, 1.63131e+08, 0.00000e+00, 3.28188e-13 
2.87500e-01, 1.61569e+08, 0.00000e+00, 3.29980e-13 
2.90000e-01, 1.59998e+08, 0.00000e+00, 3.31745e-13 
2.92500e-01, 1.58419e+08, 0.00000e+00, 3.33485e-13 
2.95000e-01, 1.56833e+08, 0.00000e+00, 3.35198e-13 
2.97500e-01, 1.55238e+08, 0.00000e+00, 3.36884e-13 
3.00000e-01, 1.53636e+08, 0.00000e+00, 3.38544e-13 
3.02500e-01, 1.52027e+08, 0.00000e+00, 3.40177e-13 
3.05000e-01, 1.50410e+08, 0.00000e+00, 3.41783e-13 
3.07500e-01, 1.48786e+08, 0.00000e+00, 3.43362e-13 
3.10000e-01, 1.47155e+08, 0.00000e+00, 3.44914e-13 
3.12500e-01, 1.45517e+08, 0.00000e+00, 3.46439e-13 
3.15000e-01, 1.43872e+08, 0.00000e+00, 3.47936e-13 
3.17500e-01, 1.42220e+08, 0.00000e+00, 3.49406e-13 
3.20000e-01, 1.40562e+08, 0.00000e+00, 3.50849e-13 
3.22500e-01, 1.38898e+08, 0.00000e+00, 3.52264e-13 
3.25000e-01, 1.37227e+08, 0.00000e+00, 3.53651e-13 
3.27500e-01, 1.35550e+08, 0.00000e+00, 3.55011e-13 
3.30000e-01, 1.33867e+08, 0.00000e+00, 3.56342e-13 
3.32500e-01, 1.32179e+08, 0.00000e+00, 3.57646e-13 
3.35000e-01, 1.30484e+08, 0.00000e+00, 3.58921e-13 
3.37500e-01, 1.28784e+08, 0.00000e+00, 3.60169e-13 
3.40000e-01, 1.27079e+08, 0.00000e+00, 3.61388e-13 
3.42500e-01, 1.25368e+08, 0.00000e+00, 3.62579e-13 
3.45000e-01, 1.23652e+08, 0.00000e+00, 3.63741e-13 
3.47500e-01, 1.21931e+08, 0.00000e+00, 3.64875e-13 
3.50000e-01, 1.20206e+08, 0.00000e+00, 3.65980e-13 
3.52500e-01, 1.18475e+08, 0.00000e+00, 3.67057e-13 
3.55000e-01, 1.16740e+08, 0.00000e+00, 3.68105e-13 
3.57500e-01, 1.15001e+08, 0.00000e+00, 3.69124e-13 
3.60000e-01, 1.13257e+08, 0.00000e+00, 3.70115e-13 
3.62500e-01, 1.11509e+08, 0.00000e+00, 3.71076e-13 
3.65000e-01, 1.09757e+08, 0.00000e+00, 3.72009e-13 
3.67500e-01, 1.08001e+08, 0.00000e+00, 3.72913e-13 
3.70000e-01, 1.06242e+08, 0.00000e+00, 3.73787e-13 
3.72500e-01, 1.04479e+08, 0.00000e+00, 3.74633e-13 
3.75000e-01, 1.02713e+08, 0.00000e+00, 3.75449e-13 
3.77500e-01, 1.00943e+08, 0.00000e+00, 3.76237e-13 
3.80000e-01, 9.91702e+07, 0.00000e+00, 3.76995e-13 
3.82500e-01, 9.73944e+07, 0.00000e+00, 3.77723e-13 
3.85000e-01, 9.56157e+07, 0.00000e+00, 3.78423e-13 
3.87500e-01, 9.38344e+07, 0.00000e+00, 3.79093e-13 
3.90000e-01, 9.20506e+07, 0.00000e+00, 3.79734e-13 
3.92500e-01, 9.02643e+07, 0.00000e+00, 3.80345e-13 
3.95000e-01, 8.84758e+07, 0.00000e+00, 3.80927e-13 
3.97500e-01, 8.66852e+07, 0.00000e+00, 3.81480e-13 
4.00000e-01, 8.48926e+07, 0.00000e+00, 3.82003e-13 
4.02500e-01, 8.30982e+07, 0.00000e+00, 3.82496e-13 
4.05000e-01, 8.13021e+07, 0.00000e+00, 3.82960e-13 
4.07500e-01, 7.95045e+07, 0.00000e+00, 3.83395e-13 
4.10000e-01, 7.77056e+07, 0.00000e+00, 3.83800e-13 
4.12500e-01, 7.59054e+07, 0.00000e+00, 3.84175e-13 
4.15000e-01, 7.41042e+07, 0.00000e+00, 3.84521e-13 
4.17500e-01, 7.23020e+07, 0.00000e+00, 3.84838e-13 
4.20000e-01, 7.04990e+07, 0.00000e+00, 3.85125e-13 
4.22500e-01, 6.86954e+07, 0.00000e+00, 3.85382e-13 
4.25000e-01, 6.68913e+07, 0.00000e+00, 3.85610e-13 
4.27500e-01, 6.50868e+07, 0.00000e+00, 3.85808e-13 
4.30000e-01, 6.32822e+07, 0.00000e+00, 3.85977e-13 
4.32500e-01, 6.14775e+07, 0.00000e+00, 3.86116e-13 
4.35000e-01, 5.96729e+07, 0.00000e+00, 3.86226e-13 
4.37500e-01, 5.78685e+07, 0.00000e+00, 3.86306e-13 
4.40000e-01, 5.60645e+07, 0.00000e+00, 3.86357e-13 
4.42500e-01, 5.42611e+07, 0.00000e+00, 3.86378e-13 
4.45000e-01, 5.24583e+07, 0.00000e+00, 3.86370e-13 
4.47500e-01, 5.06564e+07, 0.00000e+00, 3.86333e-13 
4.50000e-01, 4.88554e+07, 0.00000e+00, 3.86266e-13 
4.52500e-01, 4.70555e+07, 0.00000e+00, 3.86170e-13 
4.55000e-01, 4.52569e+07, 0.00000e+00, 3.86045e-13 
4.57500e-01, 4.34598e+07, 0.00000e+00, 3.85890e-13 
4.60000e-01, 4.16641e+07, 0.00000e+00, 3.85706e-13 
4.62500e-01, 3.98702e+07, 0.00000e+00, 3.85493e-13 
4.65000e-01, 3.80780e+07, 0.00000e+00, 3.85251e-13 
4.67500e-01, 3.62879e+07, 0.00000e+00, 3.84980e-13 
4.70000e-01, 3.44999e+07, 0.00000e+00, 3.84680e-13 
4.72500e-01, 3.27142e+07, 0.00000e+00, 3.84351e-13 
4.75000e-01, 3.09309e+07, 0.00000e+00, 3.83993e-13 
4.77500e-01, 2.91501e+07, 0.00000e+00, 3.83606e-13 
4.80000e-01, 2.73720e+07, 0.00000e+00, 3.83191e-13 
4.82500e-01, 2.55968e+07, 0.00000e+00, 3.82746e-13 
4.85000e-01, 2.38245e+07, 0.00000e+00, 3.82273e-13 
4.87500e-01, 2.20554e+07, 0.00000e+00, 3.81772e-13 
4.90000e-01, 2.02895e+07, 0.00000e+00, 3.81242e-13 
4.92500e-01, 1.85271e+07, 0.00000e+00, 3.80683e-13 
4.95000e-01, 1.67682e+07, 0.00000e+00, 3.80096e-13 
4.97500e-01, 1.50129e+07, 0.00000e+00, 3.79481e-13 
5.00000e-01, 1.32615e+07, 0.00000e+00, 3.78837e-13 
5.02500e-01, 1.15141e+07, 0.00000e+00, 3.78166e-13 
5.05000e-01, 9.77073e+06, 0.00000e+00, 3.77466e-13 
5.07500e-01, 8.03162e+06, 0.00000e+00, 3.76739e-13 
5.10000e-01, 6.29688e+06, 0.00000e+00, 3.75983e-13 
5.12500e-01, 4.56666e+06, 0.00000e+00, 3.75200e-13 
5.15000e-01, 2.84109e+06, 0.00000e+00, 3.74389e-13 
5.17500e-01, 1.12030e+06, 0.00000e+00, 3.73551e-13 
5.20000e-01, -5.95570e+05, 0.00000e+00, 3.72685e-13 
5.22500e-01, -2.30638e+06, 0.00000e+00, 3.71792e-13 
5.25000e-01, -4.01201e+06, 0.00000e+00, 3.70871e-13 
5.27500e-01, -5.71231e+06, 0.00000e+00, 3.69923e-13 
5.30000e-01, -7.40716e+06, 0.00000e+00, 3.68948e-13 
5.32500e-01, -9.09641e+06, 0.00000e+00, 3.67947e-13 
5.35000e-01, -1.07800e+07, 0.00000e+00, 3.66918e-13 
5.37500e-01, -1.24576e+07, 0.00000e+00, 3.65863e-13 
5.40000e-01, -1.41293e+07, 0.00000e+00, 3.64781e-13 
5.42500e-01, -1.57949e+07, 0.00000e+00, 3.63672e-13 
5.45000e-01, -1.74543e+07, 0.00000e+00, 3.62538e-13 
5.47500e-01, -1.91072e+07, 0.00000e+00, 3.61377e-13 
5.50000e-01, -2.07537e+07, 0.00000e+00, 3.60190e-13 
5.52500e-01, -2.23936e+07, 0.00000e+00, 3.58977e-13 
5.55000e-01, -2.40267e+07, 0.00000e+00, 3.57738e-13 
5.57500e-01, -2.56529e+07, 0.00000e+00, 3.56473e-13 
5.60000e-01, -2.72721e+07, 0.00000e+00, 3.55183e-13 
5.62500e-01, -2.88842e+07, 0.00000e+00, 3.53867e-13 
5.65000e-01, -3.04890e+07, 0.00000e+00, 3.52526e-13 
5.67500e-01, -3.20865e+07, 0.00000e+00, 3.51160e-13 
5.70000e-01, -3.36764e+07, 0.00000e+00, 3.49769e-13 
5.72500e-01, -3.52588e+07, 0.00000e+00, 3.48353e-13 
5.75000e-01, -3.68334e+07, 0.00000e+00, 3.46912e-13 
5.77500e-01, -3.84001e+07, 0.00000e+00, 3.45447e-13 
5.80000e-01, -3.99589e+07, 0.00000e+00, 3.43957e-13 
5.82500e-01, -4.15095e+07, 0.00000e+00, 3.42443e-13 
5.85000e-01, -4.30520e+07, 0.00000e+00, 3.40905e-13 
5.87500e-01, -4.45861e+07, 0.00000e+00, 3.39343e-13 
5.90000e-01, -4.61117e+07, 0.00000e+00, 3.37758e-13 
5.92500e-01, -4.76288e+07, 0.00000e+00, 3.36148e-13 
5.95000e-01, -4.91372e+07, 0.00000e+00, 3.34516e-13 
5.97500e-01, -5.06369e+07, 0.00000e+00, 3.32859e-13 
6.00000e-01, -5.21276e+07, 0.00000e+00, 3.31180e-13 
6.02500e-01, -5.36093e+07, 0.00000e+00, 3.29478e-13 
6.05000e-01, -5.50819e+07, 0.00000e+00, 3.27753e-13 
6.07500e-01, -5.65452e+07, 0.00000e+00, 3.26005e-13 
6.10000e-01, -5.79992e+07, 0.00000e+00, 3.24235e-13 
6.12500e-01, -5.94438e+07, 0.00000e+00, 3.22443e-13 
6.15000e-01, -6.08787e+07, 0.00000e+00, 3.20629e-13 
6.17500e-01, -6.23041e+07, 0.00000e+00, 3.18793e-13 
6.20000e-01, -6.37196e+07, 0.00000e+00, 3.16935e-13 
6.22500e-01, -6.51253e+07, 0.00000e+00, 3.15055e-13 
6.25000e-01, -6.65210e+07, 0.00000e+00, 3.13155e-13 
6.27500e-01, -6.79066e+07, 0.00000e+00, 3.11233e-13 
6.30000e-01, -6.92820e+07, 0.00000e+00, 3.09290e-13 
6.32500e-01, -7.06472e+07, 0.00000e+00, 3.07326e-13 
6.35000e-01, -7.20020e+07, 0.00000e+00, 3.05342e-13 
6.37500e-01, -7.33462e+07, 0.00000e+00, 3.03338e-13 
6.40000e-01, -7.46800e+07, 0.00000e+00, 3.01313e-13 
6.42500e-01, -7.60030e+07, 0.00000e+00, 2.99268e-13 
6.45000e-01, -7.73153e+07, 0.00000e+00, 2.97204e-13 
6.47500e-01, -7.86167e+07, 0.00000e+00, 2.95120e-13 
6.50000e-01, -7.99072e+07, 0.00000e+00, 2.93016e-13 
6.52500e-01, -8.11866e+07, 0.00000e+00, 2.90894e-13 
6.55000e-01, -8.24549e+07, 0.00000e+00, 2.88752e-13 
6.57500e-01, -8.37119e+07, 0.00000e+00, 2.86592e-13 
6.60000e-01, -8.49577e+07, 0.00000e+00, 2.84413e-13 
6.62500e-01, -8.61920e+07, 0.00000e+00, 2.82216e-13 
6.65000e-01, -8.74148e+07, 0.00000e+00, 2.80001e-13 
6.67500e-01, -8.86261e+07, 0.00000e+00, 2.77768e-13 
6.70000e-01, -8.98257e+07, 0.00000e+00, 2.75517e-13 
6.72500e-01, -9.10136e+07, 0.00000e+00, 2.73249e-13 
6.75000e-01, -9.21896e+07, 0.00000e+00, 2.70963e-13 
6.77500e-01, -9.33538e+07, 0.00000e+00, 2.68660e-13 
6.80000e-01, -9.45059e+07, 0.00000e+00, 2.66341e-13 
6.82500e-01, -9.56460e+07, 0.00000e+00, 2.64005e-13 
6.85000e-01, -9.67740e+07, 0.00000e+00, 2.61653e-13 
6.87500e-01, -9.78897e+07, 0.00000e+00, 2.59284e-13 
6.90000e-01, -9.89932e+07, 0.00000e+00, 2.56900e-13 
6.92500e-01, -1.00084e+08, 0.00000e+00, 2.54500e-13 
6.95000e-01, -1.01163e+08, 0.00000e+00, 2.52084e-13 
6.97500e-01, -1.02229e+08, 0.00000e+00, 2.49654e-13 
7.00000e-01, -1.03283e+08, 0.00000e+00, 2.47208e-13 
7.02500e-01, -1.04323e+08, 0.00000e+00, 2.44747e-13 
7.05000e-01, -1.05352e+08, 0.00000e+00, 2.42272e-13 
7.07500e-01, -1.06367e+08, 0.00000e+00, 2.39783e-13 
7.10000e-01, -1.07370e+08, 0.00000e+00, 2.37279e-13 
7.12500e-01, -1.08359e+08, 0.00000e+00, 2.34762e-13 
7.15000e-01, -1.09336e+08, 0.00000e+00, 2.32231e-13 
7.17500e-01, -1.10299e+08, 0.00000e+00, 2.29687e-13 
7.20000e-01, -1.11250e+08, 0.00000e+00, 2.27130e-13 
7.22500e-01, -1.12187e+08, 0.00000e+00, 2.24560e-13 
7.25000e-01, -1.13111e+08, 0.00000e+00, 2.21977e-13 
7.27500e-01, -1.14022e+08, 0.00000e+00, 2.19382e-13 
7.30000e-01, -1.14920e+08, 0.00000e+00, 2.16774e-13 
7.32500e-01, -1.15804e+08, 0.00000e+00, 2.14155e-13 
7.35000e-01, -1.16675e+08, 0.00000e+00, 2.11524e-13 
7.37500e-01, -1.17532e+08, 0.00000e+00, 2.08882e-13 
7.40000e-01, -1.18376e+08, 0.00000e+00, 2.06228e-13 
7.42500e-01, -1.19206e+08, 0.00000e+00, 2.03564e-13 
7.45000e-01, -1.20022e+08, 0.00000e+00, 2.00889e-13 
7.47500e-01, -1.20825e+08, 0.00000e+00, 1.98203e-13 
7.50000e-01, -1.21614e+08, 0.00000e+00, 1.95508e-13 
7.52500e-01, -1.22389e+08, 0.00000e+00, 1.92802e-13 
7.55000e-01, -1.23151e+08, 0.00000e+00, 1.90087e-13 
7.57500e-01, -1.23898e+08, 0.00000e+00, 1.87362e-13 
7.60000e-01, -1.24632e+08, 0.00000e+00, 1.84628e-13 
7.62500e-01, -1.25352e+08, 0.00000e+00, 1.81885e-13 
7.65000e-01, -1.26058e+08, 0.00000e+00, 1.79134e-13 
7.67500e-01, -1.26749e+08, 0.00000e+00, 1.76374e-13 
7.70000e-01, -1.27427e+08, 0.00000e+00, 1.73606e-13 
7.72500e-01, -1.28091e+08, 0.00000e+00, 1.70830e-13 
7.75000e-01, -1.28740e+08, 0.00000e+00, 1.68046e-13 
7.77500e-01, -1.29376e+08, 0.00000e+00, 1.65255e-13 
7.80000e-01, -1.29997e+08, 0.00000e+00, 1.62457e-13 
7.82500e-01, -1.30604e+08, 0.00000e+00, 1.59652e-13 
7.85000e-01, -1.31197e+08, 0.00000e+00, 1.56840e-13 
7.87500e-01, -1.31775e+08, 0.00000e+00, 1.54022e-13 
7.90000e-01, -1.32339e+08, 0.00000e+00, 1.51198e-13 
7.92500e-01, -1.32889e+08, 0.00000e+00, 1.48368e-13 
7.95000e-01, -1.33425e+08, 0.00000e+00, 1.45533e-13 
7.97500e-01, -1.33946e+08, 0.00000e+00, 1.42692e-13 
8.00000e-01, -1.34453e+08, 0.00000e+00, 1.39846e-13 
8.02500e-01, -1.34945e+08, 0.00000e+00, 1.36995e-13 
8.05000e-01, -1.35424e+08, 0.00000e+00, 1.34139e-13 
8.07500e-01, -1.35887e+08, 0.00000e+00, 1.31280e-13 
8.10000e-01, -1.36336e+08, 0.00000e+00, 1.28416e-13 
8.12500e-01, -1.36771e+08, 0.00000e+00, 1.25548e-13 
8.15000e-01, -1.37192e+08, 0.00000e+00, 1.22677e-13 
8.17500e-01, -1.37597e+08, 0.00000e+00, 1.19803e-13 
8.20000e-01, -1.37989e+08, 0.00000e+00, 1.16925e-13 
8.22500e-01, -1.38366e+08, 0.00000e+00, 1.14045e-13 
8.25000e-01, -1.38728e+08, 0.00000e+00, 1.11162e-13 
8.27500e-01, -1.39076e+08, 0.00000e+00, 1.08278e-13 
8.30000e-01, -1.39410e+08, 0.00000e+00, 1.05391e-13 
8.32500e-01, -1.39729e+08, 0.00000e+00, 1.02502e-13 
8.35000e-01, -1.40033e+08, 0.00000e+00, 9.96120e-14 
8.37500e-01, -1.40323e+08, 0.00000e+00, 9.67208e-14 
8.40000e-01, -1.40598e+08, 0.00000e+00, 9.38286e-14 
8.42500e-01, -1.40859e+08, 0.00000e+00, 9.09357e-14 
8.45000e-01, -1.41106e+08, 0.00000e+00, 8.80424e-14 
8.47500e-01, -1.41338e+08, 0.00000e+00, 8.51489e-14 
8.50000e-01, -1.41555e+08, 0.00000e+00, 8.22555e-14 
8.52500e-01, -1.41758e+08, 0.00000e+00, 7.93624e-14 
8.55000e-01, -1.41947e+08, 0.00000e+00, 7.64700e-14 
8.57500e-01, -1.42121e+08, 0.00000e+00, 7.35784e-14 
8.60000e-01, -1.42281e+08, 0.00000e+00, 7.06879e-14 
8.62500e-01, -1.42426e+08, 0.00000e+00, 6.77988e-14 
8.65000e-01, -1.42557e+08, 0.00000e+00, 6.49113e-14 
8.67500e-01, -1.42673e+08, 0.00000e+00, 6.20257e-14 
8.70000e-01, -1.42775e+08, 0.00000e+00, 5.91422e-14 
8.72500e-01, -1.42863e+08, 0.00000e+00, 5.62611e-14 
8.75000e-01, -1.42936e+08, 0.00000e+00, 5.33827e-14 
8.77500e-01, -1.42995e+08, 0.00000e+00, 5.05071e-14 
8.80000e-01, -1.43040e+08, 0.00000e+00, 4.76347e-14 
8.82500e-01, -1.43071e+08, 0.00000e+00, 4.47657e-14 
8.85000e-01, -1.43087e+08, 0.00000e+00, 4.19003e-14 
8.87500e-01, -1.43089e+08, 0.00000e+00, 3.90389e-14 
8.90000e-01, -1.43077e+08, 0.00000e+00, 3.61815e-14 
8.92500e-01, -1.43050e+08, 0.00000e+00, 3.33286e-14 
8.95000e-01, -1.43010e+08, 0.00000e+00, 3.04804e-14 
8.97500e-01, -1.42955e+08, 0.00000e+00, 2.76370e-14 
9.00000e-01, -1.42887e+08, 0.00000e+00, 2.47988e-14 
9.02500e-01, -1.42804e+08, 0.00000e+00, 2.19660e-14 
9.05000e-01, -1.42708e+08, 0.00000e+00, 1.91388e-14 
9.07500e-01, -1.42597e+08, 0.00000e+00, 1.63175e-14 
9.10000e-01, -1.42472e+08, 0.00000e+00, 1.35023e-14 
9.12500e-01, -1.42334e+08, 0.00000e+00, 1.06935e-14 
9.15000e-01, -1.42182e+08, 0.00000e+00, 7.89130e-15 
9.17500e-01, -1.42016e+08, 0.00000e+00, 5.09595e-15 
9.20000e-01, -1.41836e+08, 0.00000e+00, 2.30771e-15 
9.22500e-01, -1.41642e+08, 0.00000e+00, -4.73206e-16 
9.25000e-01, -1.41435e+08, 0.00000e+00, -3.24655e-15 
9.27500e-01, -1.41214e+08, 0.00000e+00, -6.01207e-15 
9.30000e-01, -1.40980e+08, 0.00000e+00, -8.76955e-15 
9.32500e-01, -1.40732e+08, 0.00000e+00, -1.15187e-14 
9.35000e-01, -1.40471e+08, 0.00000e+00, -1.42594e-14 
9.37500e-01, -1.40196e+08, 0.00000e+00, -1.69913e-14 
9.40000e-01, -1.39907e+08, 0.00000e+00, -1.97143e-14 
9.42500e-01, -1.39606e+08, 0.00000e+00, -2.24280e-14 
9.45000e-01, -1.39291e+08, 0.00000e+00, -2.51323e-14 
9.47500e-01, -1.38963e+08, 0.00000e+00, -2.78269e-14 
