r(m), E_r(T), E_theta(T), E_z(T) 
0.00000e+00, 1.06381e+10, 0.00000e+00, 0.00000e+00 
2.50000e-03, 1.06311e+10, 0.00000e+00, 2.00941e-13 
5.00000e-03, 1.06100e+10, 0.00000e+00, 4.01614e-13 
7.50000e-03, 1.05749e+10, 0.00000e+00, 6.01754e-13 
1.00000e-02, 1.05258e+10, 0.00000e+00, 8.01093e-13 
1.25000e-02, 1.04627e+10, 0.00000e+00, 9.99368e-13 
1.50000e-02, 1.03859e+10, 0.00000e+00, 1.19631e-12 
1.75000e-02, 1.02954e+10, 0.00000e+00, 1.39167e-12 
2.00000e-02, 1.01913e+10, 0.00000e+00, 1.58518e-12 
2.25000e-02, 1.00738e+10, 0.00000e+00, 1.77658e-12 
2.50000e-02, 9.94307e+09, 0.00000e+00, 1.96563e-12 
2.75000e-02, 9.79928e+09, 0.00000e+00, 2.15207e-12 
3.00000e-02, 9.64266e+09, 0.00000e+00, 2.33565e-12 
3.25000e-02, 9.47344e+09, 0.00000e+00, 2.51614e-12 
3.50000e-02, 9.29186e+09, 0.00000e+00, 2.69330e-12 
3.75000e-02, 9.09819e+09, 0.00000e+00, 2.86689e-12 
4.00000e-02, 8.89272e+09, 0.00000e+00, 3.03670e-12 
4.25000e-02, 8.67575e+09, 0.00000e+00, 3.20249e-12 
4.50000e-02, 8.44761e+09, 0.00000e+00, 3.36405e-12 
4.75000e-02, 8.20861e+09, 0.00000e+00, 3.52118e-12 
5.00000e-02, 7.95913e+09, 0.00000e+00, 3.67367e-12 
5.25000e-02, 7.69951e+09, 0.00000e+00, 3.82132e-12 
5.50000e-02, 7.43015e+09, 0.00000e+00, 3.96395e-12 
5.75000e-02, 7.15144e+09, 0.00000e+00, 4.10137e-12 
6.00000e-02, 6.86378e+09, 0.00000e+00, 4.23342e-12 
6.25000e-02, 6.56761e+09, 0.00000e+00, 4.35992e-12 
6.50000e-02, 6.26335e+09, 0.00000e+00, 4.48072e-12 
6.75000e-02, 5.95144e+09, 0.00000e+00, 4.59566e-12 
7.00000e-02, 5.63235e+09, 0.00000e+00, 4.70462e-12 
7.25000e-02, 5.30654e+09, 0.00000e+00, 4.80745e-12 
7.50000e-02, 4.97448e+09, 0.00000e+00, 4.90403e-12 
7.75000e-02, 4.63666e+09, 0.00000e+00, 4.99426e-12 
8.00000e-02, 4.29358e+09, 0.00000e+00, 5.07801e-12 
8.25000e-02, 3.94572e+09, 0.00000e+00, 5.15521e-12 
8.50000e-02, 3.59360e+09, 0.00000e+00, 5.22576e-12 
8.75000e-02, 3.23773e+09, 0.00000e+00, 5.28959e-12 
9.00000e-02, 2.87863e+09, 0.00000e+00, 5.34663e-12 
9.25000e-02, 2.51680e+09, 0.00000e+00, 5.39682e-12 
9.50000e-02, 2.15279e+09, 0.00000e+00, 5.44013e-12 
9.75000e-02, 1.78711e+09, 0.00000e+00, 5.47650e-12 
1.00000e-01, 1.42028e+09, 0.00000e+00, 5.50592e-12 
1.02500e-01, 1.05285e+09, 0.00000e+00, 5.52838e-12 
1.05000e-01, 6.85338e+08, 0.00000e+00, 5.54385e-12 
1.07500e-01, 3.18268e+08, 0.00000e+00, 5.55235e-12 
1.10000e-01, -4.78308e+07, 0.00000e+00, 5.55389e-12 
1.12500e-01, -4.12435e+08, 0.00000e+00, 5.54850e-12 
1.15000e-01, -7.75023e+08, 0.00000e+00, 5.53621e-12 
1.17500e-01, -1.13508e+09, 0.00000e+00, 5.51705e-12 
1.20000e-01, -1.49209e+09, 0.00000e+00, 5.49109e-12 
1.22500e-01, -1.84556e+09, 0.00000e+00, 5.45839e-12 
1.25000e-01, -2.19497e+09, 0.00000e+00, 5.41902e-12 
1.27500e-01, -2.53984e+09, 0.00000e+00, 5.37306e-12 
1.30000e-01, -2.87969e+09, 0.00000e+00, 5.32061e-12 
1.32500e-01, -3.21403e+09, 0.00000e+00, 5.26176e-12 
1.35000e-01, -3.54240e+09, 0.00000e+00, 5.19662e-12 
1.37500e-01, -3.86434e+09, 0.00000e+00, 5.12531e-12 
1.40000e-01, -4.17941e+09, 0.00000e+00, 5.04796e-12 
1.42500e-01, -4.48716e+09, 0.00000e+00, 4.96470e-12 
1.45000e-01, -4.78719e+09, 0.00000e+00, 4.87568e-12 
1.47500e-01, -5.07906e+09, 0.00000e+00, 4.78105e-12 
1.50000e-01, -5.36240e+09, 0.00000e+00, 4.68096e-12 
1.52500e-01, -5.63680e+09, 0.00000e+00, 4.57559e-12 
1.55000e-01, -5.90192e+09, 0.00000e+00, 4.46510e-12 
1.57500e-01, -6.15738e+09, 0.00000e+00, 4.34968e-12 
1.60000e-01, -6.40285e+09, 0.00000e+00, 4.22951e-12 
1.62500e-01, -6.63800e+09, 0.00000e+00, 4.10478e-12 
1.65000e-01, -6.86254e+09, 0.00000e+00, 3.97571e-12 
1.67500e-01, -7.07617e+09, 0.00000e+00, 3.84248e-12 
1.70000e-01, -7.27861e+09, 0.00000e+00, 3.70531e-12 
1.72500e-01, -7.46961e+09, 0.00000e+00, 3.56442e-12 
1.75000e-01, -7.64893e+09, 0.00000e+00, 3.42003e-12 
1.77500e-01, -7.81636e+09, 0.00000e+00, 3.27236e-12 
1.80000e-01, -7.97169e+09, 0.00000e+00, 3.12163e-12 
1.82500e-01, -8.11475e+09, 0.00000e+00, 2.96808e-12 
1.85000e-01, -8.24536e+09, 0.00000e+00, 2.81195e-12 
1.87500e-01, -8.36339e+09, 0.00000e+00, 2.65348e-12 
1.90000e-01, -8.46870e+09, 0.00000e+00, 2.49289e-12 
1.92500e-01, -8.56121e+09, 0.00000e+00, 2.33045e-12 
1.95000e-01, -8.64082e+09, 0.00000e+00, 2.16638e-12 
1.97500e-01, -8.70746e+09, 0.00000e+00, 2.00095e-12 
2.00000e-01, -8.76110e+09, 0.00000e+00, 1.83438e-12 
2.02500e-01, -8.80171e+09, 0.00000e+00, 1.66694e-12 
2.05000e-01, -8.82928e+09, 0.00000e+00, 1.49887e-12 
2.07500e-01, -8.84382e+09, 0.00000e+00, 1.33041e-12 
2.10000e-01, -8.84538e+09, 0.00000e+00, 1.16182e-12 
2.12500e-01, -8.83401e+09, 0.00000e+00, 9.93342e-13 
2.15000e-01, -8.80978e+09, 0.00000e+00, 8.25218e-13 
2.17500e-01, -8.77278e+09, 0.00000e+00, 6.57695e-13 
2.20000e-01, -8.72313e+09, 0.00000e+00, 4.91013e-13 
2.22500e-01, -8.66095e+09, 0.00000e+00, 3.25412e-13 
2.25000e-01, -8.58641e+09, 0.00000e+00, 1.61129e-13 
2.27500e-01, -8.49966e+09, 0.00000e+00, -1.60326e-15 
2.30000e-01, -8.40090e+09, 0.00000e+00, -1.62554e-13 
2.32500e-01, -8.29032e+09, 0.00000e+00, -3.21498e-13 
2.35000e-01, -8.16816e+09, 0.00000e+00, -4.78211e-13 
2.37500e-01, -8.03465e+09, 0.00000e+00, -6.32476e-13 
2.40000e-01, -7.89004e+09, 0.00000e+00, -7.84080e-13 
2.42500e-01, -7.73461e+09, 0.00000e+00, -9.32815e-13 
2.45000e-01, -7.56865e+09, 0.00000e+00, -1.07848e-12 
2.47500e-01, -7.39245e+09, 0.00000e+00, -1.22087e-12 
2.50000e-01, -7.20634e+09, 0.00000e+00, -1.35980e-12 
2.52500e-01, -7.01065e+09, 0.00000e+00, -1.49509e-12 
2.55000e-01, -6.80573e+09, 0.00000e+00, -1.62655e-12 
2.57500e-01, -6.59192e+09, 0.00000e+00, -1.75401e-12 
2.60000e-01, -6.36961e+09, 0.00000e+00, -1.87731e-12 
2.62500e-01, -6.13918e+09, 0.00000e+00, -1.99629e-12 
2.65000e-01, -5.90101e+09, 0.00000e+00, -2.11080e-12 
2.67500e-01, -5.65552e+09, 0.00000e+00, -2.22070e-12 
2.70000e-01, -5.40311e+09, 0.00000e+00, -2.32584e-12 
2.72500e-01, -5.14422e+09, 0.00000e+00, -2.42612e-12 
2.75000e-01, -4.87927e+09, 0.00000e+00, -2.52139e-12 
2.77500e-01, -4.60871e+09, 0.00000e+00, -2.61157e-12 
2.80000e-01, -4.33298e+09, 0.00000e+00, -2.69653e-12 
2.82500e-01, -4.05253e+09, 0.00000e+00, -2.77620e-12 
2.85000e-01, -3.76782e+09, 0.00000e+00, -2.85047e-12 
2.87500e-01, -3.47932e+09, 0.00000e+00, -2.91929e-12 
2.90000e-01, -3.18749e+09, 0.00000e+00, -2.98257e-12 
2.92500e-01, -2.89281e+09, 0.00000e+00, -3.04027e-12 
2.95000e-01, -2.59575e+09, 0.00000e+00, -3.09233e-12 
2.97500e-01, -2.29679e+09, 0.00000e+00, -3.13871e-12 
3.00000e-01, -1.99639e+09, 0.00000e+00, -3.17938e-12 
3.02500e-01, -1.69505e+09, 0.00000e+00, -3.21432e-12 
3.05000e-01, -1.39323e+09, 0.00000e+00, -3.24351e-12 
3.07500e-01, -1.09142e+09, 0.00000e+00, -3.26696e-12 
3.10000e-01, -7.90076e+08, 0.00000e+00, -3.28466e-12 
3.12500e-01, -4.89682e+08, 0.00000e+00, -3.29663e-12 
3.15000e-01, -1.90703e+08, 0.00000e+00, -3.30290e-12 
3.17500e-01, 1.06398e+08, 0.00000e+00, -3.30349e-12 
3.20000e-01, 4.01163e+08, 0.00000e+00, -3.29844e-12 
3.22500e-01, 6.93138e+08, 0.00000e+00, -3.28781e-12 
3.25000e-01, 9.81877e+08, 0.00000e+00, -3.27165e-12 
3.27500e-01, 1.26694e+09, 0.00000e+00, -3.25002e-12 
3.30000e-01, 1.54789e+09, 0.00000e+00, -3.22301e-12 
3.32500e-01, 1.82431e+09, 0.00000e+00, -3.19070e-12 
3.35000e-01, 2.09579e+09, 0.00000e+00, -3.15317e-12 
3.37500e-01, 2.36191e+09, 0.00000e+00, -3.11052e-12 
3.40000e-01, 2.62228e+09, 0.00000e+00, -3.06286e-12 
3.42500e-01, 2.87652e+09, 0.00000e+00, -3.01031e-12 
3.45000e-01, 3.12425e+09, 0.00000e+00, -2.95298e-12 
3.47500e-01, 3.36512e+09, 0.00000e+00, -2.89100e-12 
3.50000e-01, 3.59877e+09, 0.00000e+00, -2.82451e-12 
3.52500e-01, 3.82487e+09, 0.00000e+00, -2.75365e-12 
3.55000e-01, 4.04310e+09, 0.00000e+00, -2.67855e-12 
3.57500e-01, 4.25315e+09, 0.00000e+00, -2.59939e-12 
3.60000e-01, 4.45472e+09, 0.00000e+00, -2.51631e-12 
3.62500e-01, 4.64754e+09, 0.00000e+00, -2.42948e-12 
3.65000e-01, 4.83134e+09, 0.00000e+00, -2.33907e-12 
3.67500e-01, 5.00588e+09, 0.00000e+00, -2.24525e-12 
3.70000e-01, 5.17092e+09, 0.00000e+00, -2.14820e-12 
3.72500e-01, 5.32624e+09, 0.00000e+00, -2.04811e-12 
3.75000e-01, 5.47166e+09, 0.00000e+00, -1.94516e-12 
3.77500e-01, 5.60697e+09, 0.00000e+00, -1.83954e-12 
3.80000e-01, 5.73203e+09, 0.00000e+00, -1.73145e-12 
3.82500e-01, 5.84668e+09, 0.00000e+00, -1.62109e-12 
3.85000e-01, 5.95079e+09, 0.00000e+00, -1.50864e-12 
3.87500e-01, 6.04425e+09, 0.00000e+00, -1.39433e-12 
3.90000e-01, 6.12697e+09, 0.00000e+00, -1.27834e-12 
3.92500e-01, 6.19886e+09, 0.00000e+00, -1.16088e-12 
3.95000e-01, 6.25986e+09, 0.00000e+00, -1.04217e-12 
3.97500e-01, 6.30994e+09, 0.00000e+00, -9.22399e-13 
4.00000e-01, 6.34907e+09, 0.00000e+00, -8.01790e-13 
4.02500e-01, 6.37724e+09, 0.00000e+00, -6.80546e-13 
4.05000e-01, 6.39447e+09, 0.00000e+00, -5.58876e-13 
4.07500e-01, 6.40079e+09, 0.00000e+00, -4.36988e-13 
4.10000e-01, 6.39624e+09, 0.00000e+00, -3.15090e-13 
4.12500e-01, 6.38088e+09, 0.00000e+00, -1.93387e-13 
4.15000e-01, 6.35481e+09, 0.00000e+00, -7.20854e-14 
4.17500e-01, 6.31812e+09, 0.00000e+00, 4.86129e-14 
4.20000e-01, 6.27093e+09, 0.00000e+00, 1.68506e-13 
4.22500e-01, 6.21337e+09, 0.00000e+00, 2.87396e-13 
4.25000e-01, 6.14558e+09, 0.00000e+00, 4.05087e-13 
4.27500e-01, 6.06774e+09, 0.00000e+00, 5.21385e-13 
4.30000e-01, 5.98003e+09, 0.00000e+00, 6.36101e-13 
4.32500e-01, 5.88264e+09, 0.00000e+00, 7.49049e-13 
4.35000e-01, 5.77578e+09, 0.00000e+00, 8.60046e-13 
4.37500e-01, 5.65968e+09, 0.00000e+00, 9.68915e-13 
4.40000e-01, 5.53459e+09, 0.00000e+00, 1.07548e-12 
4.42500e-01, 5.40075e+09, 0.00000e+00, 1.17958e-12 
4.45000e-01, 5.25844e+09, 0.00000e+00, 1.28104e-12 
4.47500e-01, 5.10793e+09, 0.00000e+00, 1.37971e-12 
4.50000e-01, 4.94951e+09, 0.00000e+00, 1.47543e-12 
4.52500e-01, 4.78350e+09, 0.00000e+00, 1.56806e-12 
4.55000e-01, 4.61021e+09, 0.00000e+00, 1.65745e-12 
4.57500e-01, 4.42996e+09, 0.00000e+00, 1.74348e-12 
4.60000e-01, 4.24309e+09, 0.00000e+00, 1.82600e-12 
4.62500e-01, 4.04994e+09, 0.00000e+00, 1.90490e-12 
4.65000e-01, 3.85088e+09, 0.00000e+00, 1.98006e-12 
4.67500e-01, 3.64627e+09, 0.00000e+00, 2.05138e-12 
4.70000e-01, 3.43647e+09, 0.00000e+00, 2.11874e-12 
4.72500e-01, 3.22187e+09, 0.00000e+00, 2.18206e-12 
4.75000e-01, 3.00285e+09, 0.00000e+00, 2.24125e-12 
4.77500e-01, 2.77979e+09, 0.00000e+00, 2.29623e-12 
4.80000e-01, 2.55310e+09, 0.00000e+00, 2.34692e-12 
4.82500e-01, 2.32318e+09, 0.00000e+00, 2.39326e-12 
4.85000e-01, 2.09042e+09, 0.00000e+00, 2.43519e-12 
4.87500e-01, 1.85524e+09, 0.00000e+00, 2.47267e-12 
4.90000e-01, 1.61805e+09, 0.00000e+00, 2.50564e-12 
4.92500e-01, 1.37924e+09, 0.00000e+00, 2.53408e-12 
4.95000e-01, 1.13924e+09, 0.00000e+00, 2.55796e-12 
4.97500e-01, 8.98463e+08, 0.00000e+00, 2.57726e-12 
5.00000e-01, 6.57310e+08, 0.00000e+00, 2.59198e-12 
5.02500e-01, 4.16196e+08, 0.00000e+00, 2.60209e-12 
5.05000e-01, 1.75530e+08, 0.00000e+00, 2.60762e-12 
5.07500e-01, -6.42830e+07, 0.00000e+00, 2.60858e-12 
5.10000e-01, -3.02840e+08, 0.00000e+00, 2.60497e-12 
5.12500e-01, -5.39740e+08, 0.00000e+00, 2.59685e-12 
5.15000e-01, -7.74591e+08, 0.00000e+00, 2.58422e-12 
5.17500e-01, -1.00700e+09, 0.00000e+00, 2.56715e-12 
5.20000e-01, -1.23659e+09, 0.00000e+00, 2.54568e-12 
5.22500e-01, -1.46297e+09, 0.00000e+00, 2.51987e-12 
5.25000e-01, -1.68578e+09, 0.00000e+00, 2.48979e-12 
5.27500e-01, -1.90465e+09, 0.00000e+00, 2.45549e-12 
5.30000e-01, -2.11923e+09, 0.00000e+00, 2.41708e-12 
5.32500e-01, -2.32918e+09, 0.00000e+00, 2.37462e-12 
5.35000e-01, -2.53414e+09, 0.00000e+00, 2.32821e-12 
5.37500e-01, -2.73381e+09, 0.00000e+00, 2.27795e-12 
5.40000e-01, -2.92785e+09, 0.00000e+00, 2.22394e-12 
5.42500e-01, -3.11596e+09, 0.00000e+00, 2.16629e-12 
5.45000e-01, -3.29785e+09, 0.00000e+00, 2.10513e-12 
5.47500e-01, -3.47323e+09, 0.00000e+00, 2.04056e-12 
5.50000e-01, -3.64183e+09, 0.00000e+00, 1.97272e-12 
5.52500e-01, -3.80339e+09, 0.00000e+00, 1.90174e-12 
5.55000e-01, -3.95767e+09, 0.00000e+00, 1.82775e-12 
5.57500e-01, -4.10442e+09, 0.00000e+00, 1.75090e-12 
5.60000e-01, -4.24344e+09, 0.00000e+00, 1.67133e-12 
5.62500e-01, -4.37452e+09, 0.00000e+00, 1.58920e-12 
5.65000e-01, -4.49746e+09, 0.00000e+00, 1.50464e-12 
5.67500e-01, -4.61209e+09, 0.00000e+00, 1.41783e-12 
5.70000e-01, -4.71825e+09, 0.00000e+00, 1.32892e-12 
5.72500e-01, -4.81578e+09, 0.00000e+00, 1.23807e-12 
5.75000e-01, -4.90457e+09, 0.00000e+00, 1.14545e-12 
5.77500e-01, -4.98448e+09, 0.00000e+00, 1.05122e-12 
5.80000e-01, -5.05542e+09, 0.00000e+00, 9.55568e-13 
5.82500e-01, -5.11731e+09, 0.00000e+00, 8.58650e-13 
5.85000e-01, -5.17007e+09, 0.00000e+00, 7.60643e-13 
5.87500e-01, -5.21365e+09, 0.00000e+00, 6.61723e-13 
5.90000e-01, -5.24802e+09, 0.00000e+00, 5.62064e-13 
5.92500e-01, -5.27314e+09, 0.00000e+00, 4.61841e-13 
5.95000e-01, -5.28902e+09, 0.00000e+00, 3.61232e-13 
5.97500e-01, -5.29566e+09, 0.00000e+00, 2.60412e-13 
6.00000e-01, -5.29309e+09, 0.00000e+00, 1.59557e-13 
6.02500e-01, -5.28135e+09, 0.00000e+00, 5.88408e-14 
6.05000e-01, -5.26049e+09, 0.00000e+00, -4.15609e-14 
6.07500e-01, -5.23058e+09, 0.00000e+00, -1.41476e-13 
6.10000e-01, -5.19172e+09, 0.00000e+00, -2.40732e-13 
6.12500e-01, -5.14400e+09, 0.00000e+00, -3.39161e-13 
6.15000e-01, -5.08754e+09, 0.00000e+00, -4.36594e-13 
6.17500e-01, -5.02247e+09, 0.00000e+00, -5.32867e-13 
6.20000e-01, -4.94894e+09, 0.00000e+00, -6.27816e-13 
6.22500e-01, -4.86710e+09, 0.00000e+00, -7.21283e-13 
6.25000e-01, -4.77712e+09, 0.00000e+00, -8.13110e-13 
6.27500e-01, -4.67920e+09, 0.00000e+00, -9.03145e-13 
6.30000e-01, -4.57353e+09, 0.00000e+00, -9.91238e-13 
6.32500e-01, -4.46031e+09, 0.00000e+00, -1.07724e-12 
6.35000e-01, -4.33979e+09, 0.00000e+00, -1.16102e-12 
6.37500e-01, -4.21218e+09, 0.00000e+00, -1.24243e-12 
6.40000e-01, -4.07774e+09, 0.00000e+00, -1.32134e-12 
6.42500e-01, -3.93672e+09, 0.00000e+00, -1.39763e-12 
6.45000e-01, -3.78939e+09, 0.00000e+00, -1.47117e-12 
6.47500e-01, -3.63603e+09, 0.00000e+00, -1.54184e-12 
6.50000e-01, -3.47692e+09, 0.00000e+00, -1.60954e-12 
6.52500e-01, -3.31237e+09, 0.00000e+00, -1.67415e-12 
6.55000e-01, -3.14266e+09, 0.00000e+00, -1.73557e-12 
6.57500e-01, -2.96813e+09, 0.00000e+00, -1.79372e-12 
6.60000e-01, -2.78907e+09, 0.00000e+00, -1.84849e-12 
6.62500e-01, -2.60583e+09, 0.00000e+00, -1.89981e-12 
6.65000e-01, -2.41873e+09, 0.00000e+00, -1.94761e-12 
6.67500e-01, -2.22810e+09, 0.00000e+00, -1.99181e-12 
6.70000e-01, -2.03430e+09, 0.00000e+00, -2.03234e-12 
6.72500e-01, -1.83766e+09, 0.00000e+00, -2.06915e-12 
6.75000e-01, -1.63854e+09, 0.00000e+00, -2.10220e-12 
6.77500e-01, -1.43729e+09, 0.00000e+00, -2.13143e-12 
6.80000e-01, -1.23426e+09, 0.00000e+00, -2.15681e-12 
6.82500e-01, -1.02982e+09, 0.00000e+00, -2.17830e-12 
6.85000e-01, -8.24316e+08, 0.00000e+00, -2.19590e-12 
6.87500e-01, -6.18114e+08, 0.00000e+00, -2.20957e-12 
6.90000e-01, -4.11571e+08, 0.00000e+00, -2.21931e-12 
6.92500e-01, -2.05046e+08, 0.00000e+00, -2.22512e-12 
6.95000e-01, 1.10282e+06, 0.00000e+00, -2.22699e-12 
6.97500e-01, 2.06521e+08, 0.00000e+00, -2.22495e-12 
7.00000e-01, 4.10854e+08, 0.00000e+00, -2.21901e-12 
7.02500e-01, 6.13753e+08, 0.00000e+00, -2.20918e-12 
7.05000e-01, 8.14870e+08, 0.00000e+00, -2.19551e-12 
7.07500e-01, 1.01386e+09, 0.00000e+00, -2.17803e-12 
7.10000e-01, 1.21040e+09, 0.00000e+00, -2.15678e-12 
7.12500e-01, 1.40413e+09, 0.00000e+00, -2.13182e-12 
7.15000e-01, 1.59475e+09, 0.00000e+00, -2.10320e-12 
7.17500e-01, 1.78193e+09, 0.00000e+00, -2.07098e-12 
7.20000e-01, 1.96536e+09, 0.00000e+00, -2.03523e-12 
7.22500e-01, 2.14472e+09, 0.00000e+00, -1.99603e-12 
7.25000e-01, 2.31974e+09, 0.00000e+00, -1.95345e-12 
7.27500e-01, 2.49010e+09, 0.00000e+00, -1.90759e-12 
7.30000e-01, 2.65554e+09, 0.00000e+00, -1.85853e-12 
7.32500e-01, 2.81578e+09, 0.00000e+00, -1.80637e-12 
7.35000e-01, 2.97057e+09, 0.00000e+00, -1.75121e-12 
7.37500e-01, 3.11964e+09, 0.00000e+00, -1.69315e-12 
7.40000e-01, 3.26277e+09, 0.00000e+00, -1.63232e-12 
7.42500e-01, 3.39972e+09, 0.00000e+00, -1.56882e-12 
7.45000e-01, 3.53028e+09, 0.00000e+00, -1.50278e-12 
7.47500e-01, 3.65423e+09, 0.00000e+00, -1.43431e-12 
7.50000e-01, 3.77139e+09, 0.00000e+00, -1.36355e-12 
7.52500e-01, 3.88157e+09, 0.00000e+00, -1.29063e-12 
7.55000e-01, 3.98460e+09, 0.00000e+00, -1.21567e-12 
7.57500e-01, 4.08033e+09, 0.00000e+00, -1.13883e-12 
7.60000e-01, 4.16861e+09, 0.00000e+00, -1.06024e-12 
7.62500e-01, 4.24932e+09, 0.00000e+00, -9.80037e-13 
7.65000e-01, 4.32234e+09, 0.00000e+00, -8.98374e-13 
7.67500e-01, 4.38756e+09, 0.00000e+00, -8.15397e-13 
7.70000e-01, 4.44489e+09, 0.00000e+00, -7.31255e-13 
7.72500e-01, 4.49427e+09, 0.00000e+00, -6.46099e-13 
7.75000e-01, 4.53563e+09, 0.00000e+00, -5.60081e-13 
7.77500e-01, 4.56892e+09, 0.00000e+00, -4.73355e-13 
7.80000e-01, 4.59411e+09, 0.00000e+00, -3.86074e-13 
7.82500e-01, 4.61119e+09, 0.00000e+00, -2.98392e-13 
7.85000e-01, 4.62013e+09, 0.00000e+00, -2.10466e-13 
7.87500e-01, 4.62097e+09, 0.00000e+00, -1.22448e-13 
7.90000e-01, 4.61372e+09, 0.00000e+00, -3.44937e-14 
7.92500e-01, 4.59841e+09, 0.00000e+00, 5.32433e-14 
7.95000e-01, 4.57510e+09, 0.00000e+00, 1.40610e-13 
7.97500e-01, 4.54385e+09, 0.00000e+00, 2.27455e-13 
8.00000e-01, 4.50474e+09, 0.00000e+00, 3.13628e-13 
8.02500e-01, 4.45787e+09, 0.00000e+00, 3.98980e-13 
8.05000e-01, 4.40334e+09, 0.00000e+00, 4.83364e-13 
8.07500e-01, 4.34126e+09, 0.00000e+00, 5.66635e-13 
8.10000e-01, 4.27177e+09, 0.00000e+00, 6.48651e-13 
8.12500e-01, 4.19501e+09, 0.00000e+00, 7.29272e-13 
8.15000e-01, 4.11113e+09, 0.00000e+00, 8.08362e-13 
8.17500e-01, 4.02031e+09, 0.00000e+00, 8.85785e-13 
8.20000e-01, 3.92272e+09, 0.00000e+00, 9.61412e-13 
8.22500e-01, 3.81855e+09, 0.00000e+00, 1.03512e-12 
8.25000e-01, 3.70800e+09, 0.00000e+00, 1.10677e-12 
8.27500e-01, 3.59129e+09, 0.00000e+00, 1.17626e-12 
8.30000e-01, 3.46863e+09, 0.00000e+00, 1.24347e-12 
8.32500e-01, 3.34026e+09, 0.00000e+00, 1.30829e-12 
8.35000e-01, 3.20642e+09, 0.00000e+00, 1.37061e-12 
8.37500e-01, 3.06735e+09, 0.00000e+00, 1.43033e-12 
8.40000e-01, 2.92332e+09, 0.00000e+00, 1.48735e-12 
8.42500e-01, 2.77459e+09, 0.00000e+00, 1.54158e-12 
8.45000e-01, 2.62143e+09, 0.00000e+00, 1.59293e-12 
8.47500e-01, 2.46412e+09, 0.00000e+00, 1.64133e-12 
8.50000e-01, 2.30295e+09, 0.00000e+00, 1.68669e-12 
8.52500e-01, 2.13821e+09, 0.00000e+00, 1.72895e-12 
8.55000e-01, 1.97020e+09, 0.00000e+00, 1.76803e-12 
8.57500e-01, 1.79922e+09, 0.00000e+00, 1.80389e-12 
8.60000e-01, 1.62558e+09, 0.00000e+00, 1.83647e-12 
8.62500e-01, 1.44959e+09, 0.00000e+00, 1.86571e-12 
8.65000e-01, 1.27156e+09, 0.00000e+00, 1.89158e-12 
8.67500e-01, 1.09180e+09, 0.00000e+00, 1.91405e-12 
8.70000e-01, 9.10650e+08, 0.00000e+00, 1.93307e-12 
8.72500e-01, 7.28413e+08, 0.00000e+00, 1.94864e-12 
8.75000e-01, 5.45414e+08, 0.00000e+00, 1.96072e-12 
8.77500e-01, 3.61976e+08, 0.00000e+00, 1.96932e-12 
8.80000e-01, 1.78420e+08, 0.00000e+00, 1.97442e-12 
8.82500e-01, -4.93261e+06, 0.00000e+00, 1.97603e-12 
8.85000e-01, -1.87763e+08, 0.00000e+00, 1.97414e-12 
8.87500e-01, -3.69753e+08, 0.00000e+00, 1.96879e-12 
8.90000e-01, -5.50586e+08, 0.00000e+00, 1.95998e-12 
8.92500e-01, -7.29951e+08, 0.00000e+00, 1.94774e-12 
8.95000e-01, -9.07537e+08, 0.00000e+00, 1.93210e-12 
8.97500e-01, -1.08304e+09, 0.00000e+00, 1.91309e-12 
9.00000e-01, -1.25616e+09, 0.00000e+00, 1.89077e-12 
9.02500e-01, -1.42659e+09, 0.00000e+00, 1.86518e-12 
9.05000e-01, -1.59406e+09, 0.00000e+00, 1.83637e-12 
9.07500e-01, -1.75827e+09, 0.00000e+00, 1.80440e-12 
9.10000e-01, -1.91894e+09, 0.00000e+00, 1.76933e-12 
9.12500e-01, -2.07581e+09, 0.00000e+00, 1.73125e-12 
9.15000e-01, -2.22861e+09, 0.00000e+00, 1.69021e-12 
9.17500e-01, -2.37708e+09, 0.00000e+00, 1.64631e-12 
9.20000e-01, -2.52097e+09, 0.00000e+00, 1.59963e-12 
9.22500e-01, -2.66006e+09, 0.00000e+00, 1.55025e-12 
9.25000e-01, -2.79410e+09, 0.00000e+00, 1.49827e-12 
9.27500e-01, -2.92287e+09, 0.00000e+00, 1.44378e-12 
9.30000e-01, -3.04616e+09, 0.00000e+00, 1.38690e-12 
9.32500e-01, -3.16378e+09, 0.00000e+00, 1.32773e-12 
9.35000e-01, -3.27553e+09, 0.00000e+00, 1.26637e-12 
9.37500e-01, -3.38122e+09, 0.00000e+00, 1.20295e-12 
9.40000e-01, -3.48070e+09, 0.00000e+00, 1.13757e-12 
